maxRR,minRR,meanRR,medianRR,ibi,bpm,sdnn,sdsd,rmssd,pnn50,pnn20,pnn50pnn20,lf,hf,vlf,flf,Vhf,fvlf,maxSig,minSig,meanSig
3.2833727512331200,-3.1531240473267300,-0.6912921105914960,-0.4734224201614850,-0.21329379885379800,0.17462803600150900,-0.6532733792971650,0.049398282329815200,-1.009979802826070,0.47091839766508800,0.46117507625248900,0.27558915842447,-0.7096982063850670,3.296768939203040,-0.7296180161540400,-0.5174803297024900,-0.0964239950285235,-0.5168825029139830,3.2529743408991400,-3.2386404604380700,0.09135612082129380
-0.5306908467319590,0.2207569648674730,-0.09709158856622070,-0.06045669412671290,1.250182822577470,-1.2141097672729300,-1.092276024263340,0.04227159040419960,0.16567017024897500,0.39229398736287900,0.26753459316988100,0.7078826889172090,-0.7632888300222490,-0.35426651384490200,-0.7356024471768240,-0.4661194865572590,-0.5206234675332710,-0.4632345612972620,-0.03510889665853070,-0.25569102416082400,0.05751546548075620
-0.25692879057139900,0.4376857742748160,0.5437128959708420,0.6147980741193330,0.6468495063372130,-0.6117735976211860,0.8382382585592290,0.6651633584658110,0.3269331457009660,-0.4155451313575530,-0.6273267581211650,0.7078826889172090,-0.6366221191894700,-0.46893229626458500,-0.6169257937526780,-0.6080823580278040,-0.6788233606580230,-0.6072505235260030,-0.4181947211754070,0.37432866194085200,0.6311415120657870
0.0008859613467977260,0.8281576312080330,1.5573490806021900,1.3681814932368200,-2.2820565566136100,2.352355710925590,-0.8783376892400050,-1.240749647320630,1.8505874916895600,-1.9980493310710200,-1.704676028178100,-2.301672271459710,-0.10634280073775900,-0.34298481544019000,-0.13190166341492000,1.2742536813506600,1.3888011688129100,1.2686316433004200,-0.3719971638504980,0.21477739685613100,-1.043460314589520
-0.15327131299604200,0.2666948303890280,0.5087599240870020,0.5534112770060560,0.5386411176239610,-0.5300338775811180,1.1184121594464100,0.9363415389294680,-0.12027055488419900,0.5484469793885650,0.7670369422741500,-0.6004747219546190,-0.7293588295253280,-0.37997245710689100,-0.696880568992708,-0.5054689244228260,-0.5304204211533180,-0.5013942100086230,-0.47718615973490300,0.4453589719339870,0.23538065340850300
-0.3074285873388810,0.05231812462177100,-0.5281782418002440,-0.3673906796930970,-0.1754714545361090,0.13951523105635400,0.19955315304616500,0.6631388017288800,-0.7700840312796000,1.1288251129878200,1.0834064952246000,0.7078826889172090,2.424977282238430,-0.07512241501627060,2.3936739926524700,-0.5883428642242510,-0.7011799271284930,-0.5805113336155780,-0.2746440424241770,0.28147092585699900,1.9441950583816800
-0.46158586168172000,-0.18247541026617700,-1.180633716965250,-1.0203229762615900,-1.1076216643374600,1.0666812360389400,-1.835612731843110,-0.665128129491974,-0.3819212223143830,0.4891495779047020,0.3748236840592050,0.7078826889172090,0.6766331077087570,-0.27351884772653800,0.6561485950371030,-0.579078702127382,-0.6521690021237340,-0.5729347723348840,-0.12316437788774500,0.2895041834742340,-1.2487480850136200
-0.488164702085658,-0.25903851946876900,-2.275826835992230,-2.5494122861741200,-0.5000100344361350,0.45706093205749200,0.18380780463572100,-2.195736099638640,0.6451910475150850,0.36896209382852700,0.7467196315342140,-1.3173828922953400,-0.6476302582740490,-0.4219267211234930,-0.6362516009732430,-0.6276554298724130,-0.684268598656572,-0.6242660357727220,-0.7081437167875060,0.6908030926311270,-0.40568786941700300
-0.29945493521770000,0.11356861198384400,0.20583416776039100,0.2799609989560040,-0.14687856413114700,0.1194247193130160,-0.5142245246972460,-0.44440913199636000,0.9329999180087330,-1.5048444441395400,-1.4434804817507000,-1.011238095135300,0.08406714331738430,-0.17702559049960900,0.0310427990010683,0.3772975430559420,0.340547509252181,0.38049598412376100,-0.17609919879266600,0.31954054214801400,-1.0011861346204200
-0.24363937036943000,0.5729472671993950,0.8116856804136130,0.7543135221040530,1.1180471043748200,-1.133772726912780,1.9134028162021800,1.4385741526063600,-0.2912846659764340,0.39659347634341000,0.2722972326977540,0.7078826889172090,1.57549629981036,-0.17189171765452000,1.6544966308025400,-0.5813627246595600,-0.6227940362239390,-0.5756943410107130,-0.1320298094919370,0.13027847421509700,1.7719156918411600
-0.21706052996549200,0.6163330290808630,0.9747995492048650,0.9440545313632720,-0.37540815050590100,0.397663318227032,0.24362329268144000,-0.2895010646936540,0.8072327154642600,-1.179258807708530,-1.4733093759243000,0.7078826889172090,-0.45042670046202000,-0.2637432772861140,-0.464330771649477,0.045691869828114200,0.08287792511438020,0.007820275648804960,-0.054223003810627700,0.26936189600191500,-0.8815448007355630
-0.3260337756216370,0.4861757434364570,0.1708811958765510,-0.0437148403685465,1.2470196725007100,-1.2176392142319400,0.47668686476972100,1.040636348676690,-2.1550742113469,1.3025080887956600,1.2757989887619700,0.7078826889172090,-0.7178060884789880,-0.3673842872399210,-0.7238511553792910,2.7763477253592700,2.6744762053264,2.785220377406780,-0.4821832502851450,0.4789073395405480,-0.15087729762305100
0.58951736722253,0.07085547184795840,0.5099745730684360,0.5162181954476680,-0.5359815814579190,0.41887507696988900,-0.3751219479436300,-0.23705713340764000,-0.741055367398362,0.9397894712848760,0.580513640535344,0.7483847058684410,-0.38964419340337300,-0.37388147735045300,-0.3889314424669410,0.17458156226765500,0.02136568624903550,0.25483974692066700,-0.6040355148911110,-0.1300154741047000,-0.8641194899233680
-1.6375482422848100,0.4796370402015610,-0.4012652596870750,-0.4312991849411250,1.6351436482380700,-1.4671536035964100,1.7174364056946000,0.7563743367099160,2.329958939017410,-1.2313258592483600,-1.6451286012620300,0.29966717875204300,-0.5177824589407730,-0.458965229429451,-0.5203660647161420,1.2525966409451300,0.9671873153797140,1.32449851774488,-1.5919410258372000,0.5371712677869310,-0.616205319543589
-1.5884217950162600,1.0846337613648900,0.0879266505290413,0.07821487809813150,0.0870843187418924,-0.31231836809211600,0.8491506541299710,0.9552844279849650,0.6647342137791450,0.2670203047064800,-0.6628166328299470,1.5977002092630500,-0.26938547206374700,-0.4451740096780150,-0.2761311895819730,-0.9392043182681270,-0.4386035644867550,-1.0023163082822300,-1.804169315191010,0.9934563158058130,0.3959863759095090
0.58951736722253,-0.6649513511885270,0.0879266505290413,0.1854809966327120,-0.48713339622141000,0.3449580422724010,0.1286399553615180,1.0960106849172700,0.4373253286729260,1.0332997012628800,0.7778325732592550,0.6184064006886340,-0.28291596093542500,0.1773544337510260,-0.30837644015300900,0.008816917857129940,0.21492460030071800,0.016386050748720200,0.6061920360325350,0.20296164255558200,0.16529305484370900
1.0316553926394300,0.21801683645525500,0.864878507931109,0.9363438263747750,-0.9335562254091430,1.006878591146590,-0.7289572667366010,-1.0255807069665000,-0.9227827563366870,0.03281131276427510,0.8423451925645200,-1.043584602421860,0.8694467221651400,0.8763799846531350,0.9679267905388860,-0.4648156739322900,-0.4850134007218350,-0.41114125103164900,-0.42073491422669800,0.051761688943124500,0.7893409082599200
1.2281611817136000,-1.1800161273140700,-1.27413709948446,-1.3698777221187000,0.519552327442543,-0.7122640532395590,1.0393931154224000,0.12245254447667500,0.6696497431550030,-0.533108203851046,-0.3582042844940130,-0.44347766723213000,-0.3169483284248980,-0.2990656939746980,-0.3228833373534290,-1.0744210390932100,-1.2118116340069200,-1.0853520831290700,0.8221044960809980,1.7663855082913700,-0.9640656499129290
-1.0480308750622800,-1.71143216617375,-1.465977064275090,-1.2357950739504800,1.8466235545190200,-1.5791340236675100,0.5330686887825020,-0.593144802117965,0.3674355872190400,-1.5912526442827000,-1.4827317744931700,-0.8301407710047390,-0.5298197399372930,-0.63242935706054,-0.5283755065975420,-0.9462722854369230,-1.022756702053510,-0.9430698643446000,0.5682093888194830,1.1867478705199900,-0.5153169324384900
-1.0316553926394300,-1.3762312801238000,-1.8400649956168300,-1.9240860012140400,1.0818761862490400,-1.1251120324016600,0.5262877447132060,-0.1439722375983690,0.09787994757440910,-1.3984057213905100,-1.3980139296836900,-0.5428742610523750,-0.16800947510395000,-0.18168379378856800,-0.19050428649302000,1.0707331718655900,0.6369289515988910,1.0555073939163600,1.0684060609817400,-0.7453333627993270,0.3200117435099430
0.36026061330265700,0.4551101461003450,0.6346705501823480,0.6145454707710330,-0.4565837145030830,0.30823193868813500,-0.3712945533616950,0.1947969080505700,-1.0466343422415400,1.1575859566329300,0.6271419882876130,1.0336947691664000,-0.5300458167565910,-0.5720201466860500,-0.5277312656381000,-0.8684003143496130,-0.7471470165710700,-0.8962093263972970,-0.6117864802956340,-0.47938452811687000,-0.5288513649644370
0.6713947793367700,1.3462539651112000,1.1334544586380000,1.05254878812057,-1.1128346755882200,1.3291292690021400,-1.3700652218947200,-1.1926091598552500,-0.9584896017805600,0.44955093350443600,1.1117927960225100,-0.7131964495769680,-0.44831108904714500,-0.43111185903414900,-0.45281659358453400,-1.0936949517011100,-1.2311715957092200,-1.0856626814253500,0.35878890553531400,-2.0055077248960600,-0.7850996826824360
-0.04912644726854420,-0.08448152412641060,0.289358613559207,0.1586644669990670,-0.45219044953678900,0.29608415185218300,0.046979269501143300,1.8164168749987000,0.4247991551583540,1.3763389709238700,0.8171814088770760,1.1049829290216500,-0.5031721368004610,-0.684048887258397,-0.5035190338534270,1.5044082616364700,1.3617356766125100,1.3918877432091100,1.6302384474622200,-0.2543476179032640,-0.19599849399392500
0.884276050833795,1.3626052278453400,1.373254414626290,1.4190413597803900,-1.1919999924740000,1.491825011065920,-1.9955168436687000,-1.7489717371923600,-1.3228208468191400,-0.5023042223071480,0.7900876232165360,-1.8295624414721500,3.0865879492485100,3.0246460358561600,3.051708369899230,1.3756720282092900,1.9343616834084400,1.3806320620704500,-0.021272084470628600,-1.123895586082640,2.7990248509361000
-0.4297765043185160,-0.29758482964488400,0.15918618604257700,0.8721483780445650,0.9069723997208580,-0.8690886335762950,-0.060029573484904800,-0.09213599521198870,0.08791113614234090,-0.1342093461568950,0.027547371958226600,-1.1643187811115200,-0.4175417662157610,-0.6420242437640110,-0.38768636654321500,0.7808665255817090,0.6809537393683490,0.9197648004499790,1.0141857846793400,-1.3375091408042400,0.06097345786964090
-0.9544100336445340,-0.30477721223448800,-1.1262050732171000,-0.6497679151168700,0.6731364441846390,-0.7339904095514120,-0.07879754940117260,0.8707430699524780,-1.6274969955027900,0.9281335263132440,0.8873428804336150,0.5610780985217560,-0.5515020572967450,-0.797612396154649,-0.5278216256891270,-0.5011403356977030,-0.5235429295816790,-0.5156446223609240,-1.5472885292478900,1.5997322987569700,0.05519225398172700
-0.2877277147898100,3.316587421631350,0.8197344720510230,-1.7651449244886100,-0.7124254439989940,0.8016174980268100,-1.9229035937574900,-0.8969564080298550,-1.135671723901150,0.9281335263132440,0.8873428804336150,0.5610780985217560,0.356101844086121,-0.05778917275494620,0.313319736823002,-0.39782128254589200,-0.27641804177985200,-0.42632352845858300,-1.6401864967007900,1.7364961421267400,1.2012847135187700
-0.8369830343008040,-0.3011810209396860,0.3020074370714300,1.320383998633210,1.8111085848080100,-1.754115684381530,2.4376059291746700,2.289676814595540,-0.08890300119175120,0.215603961377132,0.1458997901289270,0.5610780985217560,-0.640648199119275,1.9954811272749600,-0.6340846396945180,-0.0004568719203976210,0.059450651964292600,0.018623180987822800,-0.11679327903044800,-1.4838961482169800,-0.6875680249171500
0.23311784681544200,-0.3011810209396860,0.1948914987997900,1.174446819836900,-0.012105623704759500,0.016474866551650500,0.9415591147021280,0.0695333584045614,0.900595147058221,-0.5711668885031720,-0.672797200148526,0.5610780985217560,-0.6131509941314500,-0.7676690793460430,-0.5851453322428630,-0.4598372382001470,-0.43788247522017900,-0.4681701565033080,0.33875214522281100,0.01680955555614930,-0.18805997753746600
2.0589182882244000,-0.31196959482409300,-0.07289834687930910,-0.8686736833113220,-0.3008336337975310,0.271724874735603,0.08212457900819960,-0.12689065333305600,1.1782901996882600,0.32664752993860500,0.26144936264394400,0.5610780985217560,2.6360747369720900,2.0405555671696300,2.716486236111290,-0.504323916354208,-0.5327192136951620,-0.5183330070419770,1.869209754123310,-0.3520638820087390,1.458536638548900
-0.17219469930646300,-0.3011810209396860,-1.0726471040812800,-0.8478255149118510,0.1733419011589590,-0.2285411331237180,-0.4594332012880340,0.3628058630483210,-0.9890548041878330,0.8054890646134400,0.7597216655867450,0.5610780985217560,-0.6643837476222950,-0.8751379898107710,-0.6393288389591350,-0.37545563355059500,-0.4341610762396820,-0.3780228156150810,-0.7419622388872550,0.6202169686705720,-0.3105483589238070
-0.9146363725764960,-0.30477721223448800,-1.0547944477026700,-1.0771553673060400,0.07383106481601740,-0.14608667559179200,-0.5982227341844610,0.1899114104152310,-0.8668113053783960,1.0202291843662100,0.9831756608131320,0.5610780985217560,0.4868223687641580,-0.0321641599432787,0.4646837683427680,-0.3463566117478790,-0.36172844587496400,-0.35873443616069500,0.2769921127526780,-0.7381541908853750,-1.8850149701593100
0.01909767059219290,-0.29039244705527900,2.533589484397260,0.4447609258553950,1.1191750158095100,-1.089800535265540,0.272858127741328,0.8582530760758340,-0.6019486794474010,0.565855217257625,0.5103637875862330,0.5610780985217560,-0.6281750671856690,-0.6639931648719040,-0.6227194149951150,-0.47428639987934300,-0.4963717974999140,-0.48854341117443400,-0.805405204709069,0.7289222685353010,-0.6891230077591790
-0.3843208916693300,-0.3011810209396860,0.3198600934500370,0.017373473666224800,-0.4852981988448380,0.4434630253925360,-0.7594647970178770,-0.9194294888603230,0.5968067406390160,-0.18783500899698700,0.13594382173990500,-2.3053070402238400,-0.6261116434946790,-0.3223570237139550,-0.6521257670406620,-0.3270233976796340,-0.28514191939734300,-0.3221385253154300,0.13215453482034400,-0.8889196771822900,-0.37934471422275200
2.1422535780812400,-0.3011810209396860,-1.0547944477026700,0.05906981046516820,-1.4634150103924200,1.4895290511270500,-0.2643759819548570,-1.4058170383252600,0.9933732473744230,-1.682249961778220,-1.5430392711584100,-1.580077065360510,1.3249718391710900,0.729906325876381,1.2146988890771600,3.1094392084060200,3.128610879774040,3.0554680843616400,0.9469074902043270,0.2141726333963390,1.847252297881570
-0.47333813310731900,-0.3011810209396860,0.052070247770937400,1.320383998633210,-1.7834874997594200,1.798813755656570,0.40907968046244500,-1.1996940087314700,1.5529100387070600,-2.2146308047442500,-2.3829507500174100,0.5610780985217560,-0.6624573139275880,-0.607195789961418,-0.6602766451895760,-0.5036040464119370,-0.5210493718179100,-0.5179455631690090,0.27343392677261400,-0.11580682794447300,-0.48358030828092900
1.3345894091937700,0.5314921850430260,0.4397962032089370,0.3576836828446800,0.14828721641580000,-0.14298948917399300,0.166962906656166,0.19170537413805700,0.2734525321610460,0.33833382794666700,0.9854928787943390,-0.9614294359316520,1.4858340394086500,1.0438454225073600,1.6942782625709200,-0.5662095446209630,-0.5537714723588650,-0.5785115540597780,-0.38504603545434200,-2.528633295129430,0.9593576800714670
1.1288751630103100,2.706290595925800,1.9342324105486100,1.7941643368393800,-2.2157801947859100,2.2816241467301400,-1.4590756465766600,-1.805019076226730,-0.6182475894393480,-2.175182820054580,-2.481132205548110,-0.3084186384884400,-0.6887381496639670,-0.45314012135548500,-0.699039722208031,0.7672269587643080,0.8025488662946030,0.8537836018764330,0.13423136096597300,0.12550721495557000,-0.4652428989173150
-1.4359875660005100,-0.6404199120129730,-0.6679676987351590,-0.5616639357119270,1.6487758730148200,-1.6125662368129300,1.1504508984783200,1.4773795820392700,0.6589698043596170,1.1869683836525600,1.1189412417477300,0.5420140279492230,-0.5973564758070210,-0.5792816000228260,-0.6371050570057250,3.045289709642450,3.0269295337651,3.002408311510080,0.8179659723444900,0.2612359390945380,-0.12911704567007800
-1.6767170030237100,-1.339059816027130,-2.277360537408660,-2.4003591728251400,-0.4206693625967410,0.35055333089789700,-2.3298035556027000,-1.884368002871280,-2.5416792118870700,-0.49347919831938400,0.7723983293895950,-2.321056394787290,-0.634908435115993,-0.5186786627403030,-0.6441221884782070,-0.018077985987790200,-0.03134914447176330,-0.002152734287091190,1.6597939266231800,-0.8140120320130510,-0.22903167304600700
0.9888143996513560,0.2948560885221030,0.9309745370898090,0.6449798136436200,0.07897078797601660,-0.08258905185467250,0.18579025686916200,0.13660757084857600,0.017398135219236500,-0.021870920034614300,-0.3670854440213340,0.6122956375274570,-0.6337947658410380,-0.7292616953364840,-0.6404548230987660,-0.5809453631178280,-0.6196329010713960,-0.5927982970091080,-0.6903383765392660,0.5097306336347560,-0.296070535990236
0.10905772980293400,0.2047090041331800,-0.10363514491458200,-0.09049828120166600,0.7620849057266070,-0.7424028628487050,0.6684644434483910,0.7299433289411010,0.621865575014393,-0.3552604256661770,-0.3661606041424860,-0.11118948900686100,-0.03914654857500720,-0.30536791948670000,-0.0152511240317631,-0.4801719285898540,-0.5374550831882170,-0.48128568767381900,-0.48543105598210400,0.09051601657880570,-1.363452023034680
-0.08352581981562610,-1.0573501773117400,-0.18723996770281600,0.0014364806539947000,1.1723511989986500,-1.1608226324070100,1.035689789601110,0.9144942178570050,1.3502787851083500,0.1676032969464890,0.25812305326346000,-0.09020146245843000,-0.5612057502581060,0.06222373575566180,-0.5817076459495360,-0.25472742697027800,-0.2628459509466810,-0.24834226218432500,-0.8440729593249060,-0.7097989151959400,-0.18866749655850100
-0.7269299514958150,-0.7418353819505120,-0.16633876200575700,0.12784677820552800,-0.06362717236689990,0.001066775946980680,1.0205751485508000,0.7363586198181670,1.1929025820583700,0.026116883561576900,-0.3800910048176390,0.7398355363546050,-0.5218970804748530,-0.8346721239359420,-0.5448866802403830,-0.584180304337432,-0.5854636996552510,-0.599007999678501,-2.2704386708216700,0.4912883818974340,-0.02908670251349580
0.3804254588109050,0.05821999200118030,0.17853113199570600,0.191051926981295,-0.45148262589019500,0.4482617527085490,-0.4115881578515360,-0.5634306683604440,-0.35565169487278900,-0.6849343864678180,-0.6139969863034160,-0.38723028645572900,-0.6876474955932890,-0.8447355125024440,-0.6967681839967440,0.20827575197710200,0.2241664454888270,0.23974280701749200,-0.03697795070821380,1.4100294967661100,-0.4584291529783730
1.137628960720240,-0.39251542994343500,0.3352901747236440,0.31171630191685000,-0.9424698603782180,0.9425352153121020,-0.4593926658797510,-0.5294434726528940,-0.10794843855181300,-0.365778701459896,-0.329185248290108,-0.19958350558123700,-0.1789371298311970,-0.4745362028254910,-0.13299516829226100,-0.5857082564893630,-0.6263777340960440,-0.5990666513605540,1.1776715038017800,-0.35230402563371300,-1.3195036134293600
-1.046443567908430,-0.09953740567943500,-1.0023869898880900,-1.17073173300568,0.8749746725963180,-0.8539825837473970,0.3217539869498450,0.6628673863956490,-0.8606830966177320,2.167794784798960,1.4345269778667500,1.9771191525627900,2.621486542682590,2.602464584129750,2.466803365611720,-0.5202285977773250,-0.48408089107176900,-0.557579299252338,0.5514988722170370,1.2986401381437700,2.3371899864073200
-0.10978721294543000,0.4751502572999500,0.5861046430883450,0.7943738016590690,-0.5914154387103110,0.5713116352490530,0.11017259535685600,-0.06709485992649080,0.3693426174476940,0.20968927509620800,-0.03183098793881810,0.5078448583155700,0.4363112490692280,1.031140095812910,0.4312489651187760,-0.43054301249302300,-0.3526679686885440,-0.43719023489849300,0.371143412878013,0.2178004469011630,1.1820534756592600
-0.5203452326671390,-0.14230551176224200,-0.22917235587798900,-0.23213431378264000,0.39686031199107200,-0.4409817857560870,-0.4168428173180330,0.3923312367096780,-0.5431962335955720,0.18721941904194200,-0.2943995184970900,1.1185655786292100,-0.38779822498272100,-0.3992097629715440,-0.3690200838022870,-0.7263182478191970,-0.6747901940559530,-0.7206867450179040,-0.06425594088494370,-0.002232581931945410,-0.3249957476072360
-2.1245716416804500,-1.260273992656980,-2.038802772240980,-1.9918621763284600,1.4462264245114100,-1.1840660831867400,2.0664896738164400,1.4951687421744800,2.335796160642090,-2.1615958203329700,-1.3318361753546200,-1.483090895738200,0.010870792458152800,0.022099563889451700,-0.018298182299091400,0.33621304896143400,0.18536246537680700,0.2930827143750010,-0.17146290713818300,-0.34297289980226500,1.2048750191239000
-0.2570875655470060,-0.10544940799648100,-0.40016105663669700,-0.5391506642693580,0.3585560783281020,-0.42564614556460400,-0.4301471110279180,0.21824903832677400,-0.7703056586276190,-0.075597831555077,-0.4807622305164800,1.0446122425489400,0.4325940709472550,0.9142815687560970,0.3093009323112230,-0.9827219141075470,-0.7505241499421140,-1.0286241090103500,0.4125107383334570,-0.5978243109782010,1.8203143313221400
1.5116748854163900,1.60221673315043,1.708699586054030,1.8870273249427500,-2.0586926157907700,2.2134489593441800,-1.897461190832550,-1.965129139703500,-0.9822832966286890,2.135974960815990,2.188463413572970,-0.8225103515777660,-0.4020737638795270,-0.39060184342448100,-0.38470966419406400,-0.11474846788190000,0.3115374270368310,-0.1422835271190720,-1.700026567029370,1.7128623225880900,0.564581148069323
-0.6026132536421810,-0.8548568512336150,-0.1294289471020760,0.014976407340815500,0.5916034414123890,-0.592127256608745,-0.05000171475204950,0.527641253008243,-0.20467176903300400,-0.1357488798661480,-0.5516122826045380,1.1047036599637500,-0.5124058465412310,-0.7273883961445540,-0.48448630723103500,1.2966096476459100,1.5667211019726100,1.447691500096920,0.7880152243053490,-0.752430784462959,0.046704041907248600
1.1085615826386900,-0.6460055965609710,-0.01543647992960450,-0.13478766606734000,0.33795768290050100,-0.3973985936814460,0.44588592607057700,0.3002377485148510,0.11892753159396900,-0.27690476248664600,-0.45561962535061500,0.5303004052633870,-0.31635482374508800,-0.35099982958293400,-0.3077107211296970,-0.7041253904456580,-0.8906956843606500,-0.6594503862364480,1.4986941733285300,-1.4268694178030400,-0.4377707217247580
0.9933863532736300,0.2016847900515250,0.3977862135706060,0.4492922202244650,-0.4277281863577590,0.2761252881547660,0.11121733662901600,-0.5007037820040730,-0.4799580334402700,0.22891418991072000,0.39857419494598100,-0.5374229996276770,-0.2886488912233810,-0.22815506900934500,-0.2894589778074210,0.7776250954919130,0.5760827155429450,0.7656571805213250,-0.5815085807586640,0.5577221732948610,-0.46297766068188100
-0.2899947739370220,0.37367994095840800,0.3835371551740470,0.3744101835203880,0.21709225920945200,-0.29308567337907,-0.153054227559375,0.05956206121494610,-0.46500026628407900,0.22446344285235700,-0.13176033734736200,0.7687657934784920,-0.48488545163815900,-0.7442891015308760,-0.45910094516720500,1.9450222791667400,2.236732873932870,1.7901673334894400,-0.3492245795715950,0.7040178407571510,0.3236426124547520
-1.096221379492430,-0.11773477591840100,-1.0413686844818500,-1.0708131248683100,0.37529429519331900,-0.431768396023852,0.0799296350423355,0.5195311697377210,0.5469722089116930,-0.3994288881606070,-0.5631571064057270,0.5460768419899370,-0.4609212524363580,-0.7757499362649350,-0.4387650194400910,-0.9909521191388230,-0.7886645636498690,-0.9947610011484370,-0.06505805965214970,-0.2751186930258960,0.3578303684939170
-0.12545873198693900,-1.6288350303145900,-0.7563875165506720,-0.6140327009734360,1.0287381588247500,-0.9079652036355080,0.9730571505864970,0.9761786848693650,1.0571787671575600,-0.8740290473359690,-0.9393033236034240,0.49690353271237600,3.2055041467635000,2.9897384303886600,3.236247163840750,-0.8159581333777010,-1.0197133718429200,-0.792699414559122,1.3478328526708800,-1.1136961655243500,-2.3700533351784000
0.6972214777634790,1.7864972519792300,1.5519599436918800,1.4377351047182900,-1.8124925907444500,1.8847402316875300,-1.44026055744371,-1.9626234102621900,-1.443204924068900,1.260931164068570,1.7499073781934400,-1.4998778998111700,-0.4851266340350900,-0.10457365261763600,-0.4830824864589250,-1.0514099550367000,-0.7776224339163690,-1.068997597345420,-1.8099521783184000,1.9271023293134200,0.020693718348096500
0.7054482798609840,0.7913824503036950,0.568774914329314,0.41933940554283400,-0.45341525947799900,0.2987246586495860,0.7111878967887760,-0.060443602586296000,0.8297455133728200,-0.11419794695214900,0.411505612967488,-1.2670259078312900,-0.3107541216873510,-0.20515197148790700,-0.31091570862216200,1.0307641565415200,0.025573813905808800,1.1109040519540600,0.6944358247150890,-0.39055981242486800,-0.742843774527102
-0.4498624999172460,0.6185253591692980,0.8466426692322380,1.018951369342450,1.1178578367819000,-1.127221230239820,-0.9362157096707030,-1.1559535673945400,-0.09271281161276350,0.20956770585935900,1.3238762633075700,-1.0609792669104900,-0.4010243934040970,-0.6357981489151780,-0.3366120675275940,2.2902888151304300,1.9956281648397800,2.367421109000390,1.6715726432004800,-1.4935381385017900,-0.8391782452823550
0.6080470104154100,1.0841311645956300,1.3766022026447800,0.8817188616868980,-0.8978209391991990,0.9070252670656770,-0.08752948642699450,-0.3399009319046930,0.1584720213866060,-2.2629703076720200,-2.454017165062410,-1.2767123434230000,-0.870723097252943,-0.9509801803396290,-0.8887103912243650,1.1616333447598900,1.5934513072903800,1.1094404028476400,1.0537333370437600,-0.44760492428000900,-0.7449245994116770
-0.5334072362704220,0.6824320383454620,0.6656808773352710,0.8131026078591240,0.23166257638053100,-0.2472419664615430,-0.2229327888325700,-0.08130533940915810,0.2793609706032480,-0.45536275407906500,-0.9798507682963270,0.3361481190836390,1.731957822020820,2.2040360063573400,1.5538405943172900,-0.9525820549302560,-0.8886445107866180,-0.9733731335260220,-0.6485235910395240,-0.9055876853674510,-2.085027395301470
0.4331859343273670,-2.7137514835878100,-1.3636763603664300,-1.3002780100363200,-0.1024841025082080,0.08576224219235860,1.9651472828646400,0.8342060608536010,1.9316987077122100,-0.4801293946921550,-0.5653011196665460,-0.1897881438450590,-1.1711242627686700,-0.9352720978097580,-1.201466933432090,-0.2826384329857630,-0.8430350939727990,-0.22288965711487600,0.8577863101189000,0.8481117115274980,-0.19404945167657600
-0.3051163869332550,0.7554682431182200,1.1697887261911100,1.286554759270770,1.6542120219124300,-1.5891103317504700,-1.4961971198626900,-2.0064277871135600,-0.5641683532586090,0.11332479296323500,0.6663926442519910,-0.5271334893586630,0.11916426095970600,0.5392048173905510,0.2094010986772770,-0.8171080448174750,-0.9798795277278430,-0.7981253591222200,0.4125888927743550,-0.5337810642528990,-1.0121917974900400
-0.7111826636265980,-0.367463405262941,-0.1357213439227250,-0.09263194266749510,0.283882910442534,-0.3260067005736390,-0.18472661098984100,0.31844593120745300,-0.4803963854574650,0.4786953761702230,0.03438430322033640,0.8059822540621620,-1.05232432936217,-0.7659852155667460,-1.085295204550820,-0.17799825920165700,-0.2186186415305440,-0.16658021092752100,1.0041863461586300,-0.7350624899531730,0.02811160134336600
2.1643105875989900,0.1346605025497730,0.35546066265475600,0.2092795741747110,-0.1480150943081940,0.10913332085308300,-0.05265559201143390,0.44677927206068900,-0.34362329043031100,0.8106472275917740,0.605209064877467,0.7255873352420060,1.4684764709272100,1.4088638781561500,1.5927333117397100,0.5043086325112370,0.321666559127154,0.5295314087584500,0.4774959709841890,-1.275053082564450,0.9608466967317650
-0.7947273999797740,0.5546186799931350,0.20035055531449900,0.456298087954698,-0.7637327058202470,0.7200248765786030,0.10409051469831100,0.3561448484313560,0.3318393703869890,-1.0972180777856000,-0.41433102695547700,-1.4515058357164300,-0.9586625606850510,-0.9734957665208170,-0.9912968102766720,1.052849046815350,1.0455872830583500,0.9471000285782250,-0.8680187874702200,0.7926736525704790,0.19926798336786200
-0.8190136605475570,-0.09357763736509680,-0.8466426692322380,-0.7307631032657950,-0.7838910213149860,0.7409358816844930,1.0787874952345000,1.90015517988029,0.9418868282993190,0.5993039460937430,0.00847397529778375,1.0456598594019200,0.6688478147880000,0.5633924686697140,0.6876357383809800,-0.7339112445695130,-0.8831422908049280,-0.724642781270743,-1.104440011617780,1.076708257613260,0.8364296393255400
-0.5887799103649680,0.6459139359590830,0.6398291927785610,0.607253846375801,1.355593023379790,-1.322497234382410,-1.243583854996540,-1.17035213080387,-0.632916053341693,0.2665285319729640,-0.046981360528289800,0.5304467274883070,-0.9348769374439070,-0.8474108713302180,-0.9413296597030380,-1.0119338473712700,-0.9437001160715960,-0.9767258999662110,-0.30557435313549100,0.2762321546813570,0.1617983100869470
-0.829699615197382,-1.0430482994109600,-1.7514516287170700,-1.7394220345340700,0.053475515803269400,-0.04280756370650150,1.4404115405363100,0.3842420356754470,0.8040687016027910,-0.1428774057185790,0.5238496242081470,-0.8096502869858790,1.024959857503030,0.33071208840208500,0.9809730629479790,-0.8767563247350680,-0.3032869969933320,-0.8996668868393430,-0.9493965222881160,1.8473370123853900,1.4599682357486600
1.8262458404954400,-0.2579090981038030,-1.1568628839127500,-1.4100640161607600,-2.0007400215496300,2.0920034387401900,-0.3645956705430040,0.5139664285169810,-2.333509705890330,1.9604903592961100,1.2982955653457000,1.8719450709614800,0.3753293547180740,0.06273302150650480,0.4201272606513450,-0.1561516306059060,0.10397386357200000,-0.19148902041776900,-1.6014102347291800,0.5495645961418050,1.2289490225579800
-0.6011198512294600,-0.09815861373031650,-0.6141531674738290,-0.35821166042955100,0.9027921244631060,-0.8677664719418030,0.9099062980817360,1.0581794737895600,-1.6608156763513900,0.7690493374870330,-0.25492993395895000,0.9789617661129920,1.1409711364046800,0.6449003852589780,1.1725728235737600,-1.1037967515203500,-1.1889288811372100,-1.0902013349570100,0.026725932006008900,0.8684012015579780,1.0460818566138100
2.876774833591400,0.0568286711070244,2.8392614486515600,3.1587755510605800,1.1854968740168600,-1.1093581128397400,1.12228948030769,0.9571114515270470,0.06615710461220830,0.5393306504724070,0.12626995671007000,0.5541548201193600,-0.6197589703112530,-0.42862471684917700,-0.6410593308360160,1.374000995442090,1.343827344173120,1.3503811386173200,-0.6759471980802100,0.2098372958967650,-1.0164764183744300
0.6221650767689410,0.6070335322795850,1.104949981835370,0.5382056187280360,1.0763565140358400,-1.0503247115993300,1.1835315587796400,0.9789888189009050,-0.04387544396576690,0.8195275592146420,0.6245983054058840,0.6500789692146970,-0.8686123836735430,-0.9238241311605280,-0.8318802880073150,0.00930342175786499,0.3824474417012960,-0.09835433751326840,-1.2895738647036600,0.9101164112723590,-0.5539228161542830
-0.6907652175438770,-2.802686734141920,-0.7349748010016220,-0.8644446681440400,-1.297021057017170,1.2886168248162400,-1.7320277070705000,-2.259040068174240,-1.6372508271199800,-2.037038143644000,-2.7694285916639200,-1.3025188948877700,-0.8589077618214130,-0.8761824924166120,-0.8267140740159790,1.780169479867820,1.2245174508588700,1.7648329099537600,0.8875081301139520,1.3896074579046300,-0.21766814502066600
-0.5185386165646590,0.3978006977491740,-0.5854263455161720,-0.31084482929837000,0.35384978441703,-0.41478456782811400,0.9294694420948560,0.7520543277510090,0.5310790527503830,0.9409741053584430,0.7436042405419330,0.7313010364648820,2.0205118186205900,1.752122325687900,2.1045491717748000,0.09121513954976710,0.003720776073129780,0.16511391261814600,1.3706495558311500,0.6461701976417060,1.3447114108621300
-0.722285065828304,0.9170081019542660,-0.5868345230631160,-0.20663780080977400,-1.0593473935827800,1.0205975499331300,-0.605898233907136,-0.6876490985147550,1.2756803478800500,-1.095439899975590,-0.07643157245520220,-1.188557139429320,-0.8441966771924750,-0.7311682966732850,-0.8156676446445320,-0.25838813849496100,-0.22836140347697400,-0.23786392875304400,-0.07077665781995750,-1.6331225961355500,-0.5509295718344850
-0.527637525265523,1.0100004728566700,-0.589932513666393,-0.2847930721762210,0.09408364262684330,-0.16923267685222600,0.6240667868683040,0.3636987066139010,0.8473675557506450,0.35384663404265600,0.6801358810081680,0.12220826158802000,-0.759221329703057,-0.890124311063087,-0.7248433835406890,0.34659838753915000,0.34716941552868900,0.3685590079553190,0.13670012500670200,-0.9640135595951790,-0.7399088589569940
-0.6623167308462400,0.684527174698255,-0.5806385418565630,-0.16933642129396900,-1.356758436767410,1.377021018622390,-0.9460612320247250,-0.9720767079203270,1.3652091805395300,-1.0275030451692600,1.5864215847112900,-1.6663225678581600,0.41520960527671200,0.8257712531228730,0.27296208406769600,-0.7202447675495300,-0.4102017453179770,-0.7399651274428520,-0.034057146888855500,-1.1127730930179100,1.0216681777211400
0.7147666286106420,0.11882358504196100,0.1572464927420770,-0.38189507599514100,0.5215251752053340,-0.5526919929849160,0.43979396039269000,0.4504114293709570,0.0027120533474248900,0.5808076356278260,0.09648871525155420,0.612974243410786,-0.6755954470802750,-0.6305944587205860,-0.656832748899577,-0.9914396557208700,-1.062064063005660,-0.9915543255957080,0.01369738738383230,-0.7041138550736130,0.10613524154605500
-0.5810408248558240,0.3203070553305040,-0.5586709721242370,-0.23032121637536400,-1.6672782447198700,1.7336863613813700,-1.5446580840587300,-1.1519170045046900,0.7101791381564420,-1.2844965009770400,-0.25492993395895000,-1.3381670302159100,1.5635010989991600,1.887248667002160,1.531619490408310,-1.058590430316810,-1.430830047033690,-1.0343403509640100,1.7822611186912600,0.18502107489754800,-2.055237956719870
0.30804157048005000,-1.066829143963700,0.2746885001572030,-0.36650085587750700,0.7045337062509180,-0.7130019762616790,0.224889353040025,0.5070130352401280,-0.22892579451038400,0.6718923300758290,-0.49676642373822100,0.9789617661129920,-0.6068859144151290,-0.8358048690310490,-0.6054501962299670,-0.9104364079508090,-0.7355937209726620,-0.9315742122881540,-1.997261429585030,1.2511994139421600,0.43698286917179300
-0.21804427731714700,-0.14465479918151900,-0.12551555868427200,-0.5239955693886820,0.5417673110713170,-0.5427612444453410,-0.6053016225038660,0.00322563592050023,-1.227516691089170,0.7690493374870330,-0.0050322278537033400,0.8669247693674190,0.09298482489599760,0.20628064484241600,0.020744096349506300,1.441608727396650,1.7542974326090700,1.4749666483695100,-0.1499259519552240,-1.0463299492908700,1.178564211145790
0.21424087169410100,-0.9171941296116990,0.22656737809863400,0.2608441347112170,0.0807784514785854,-0.1463219715149750,-0.48106259680510300,-0.8422932303217750,0.8311380386178150,-0.9865915123206730,-0.185463346249199,-1.8335540727011800,-0.4481297910488650,-0.5356420678865410,-0.38329231902193900,-0.48123104005051400,-0.5630969440549930,-0.47220864034174000,-0.33251772109887500,0.2315460023408480,0.11004484847401200
-1.4627969451431800,0.19521729988168300,-1.5386292094757800,-1.657282431650050,0.04475921478390490,-0.12712279384636300,-0.6387168859368450,0.3702722958194890,-1.7861712915798200,1.3115298129360500,1.1187436131033300,1.041508763083830,0.65040306420086,-0.1676462077074430,0.7191447361443660,0.293484465180338,-0.27071512477034600,0.3065536817397910,-0.8149220490412290,1.1927896319039400,0.9349172406590390
-1.0031012999187500,-0.9695429027643290,-1.1125472745440300,-0.9195414445880260,0.6806774118267590,-0.6699722797962640,1.427158027694870,0.998290324937733,0.5477673081190180,0.8321971527072200,0.7879407849407640,0.5900081445196320,1.2207255473265900,0.036422607033179800,1.1747124369563800,2.2175406199442200,2.097455208950150,2.0592370808377600,0.8361868318395800,-0.2923458967674230,1.406241180984790
0.32490834184072400,0.9411873173066560,1.1801793277078000,0.9669676508991560,-1.3397196951283900,1.3223305232836200,-0.5942350987977970,-0.9874714133068910,-0.0407379409366869,-1.5707677591820100,-1.6802501697825500,-0.968793152652314,0.5150611917504430,3.0206467991432200,0.476840824035183,-0.6871976019927690,0.8748223581527920,-0.7386732721987920,0.10773283697161700,-1.8400038044778100,-1.704671143656190
1.0059389273584000,0.6140074851027200,1.403365103148250,1.588777911422860,-1.1756644225327900,1.1311338461571100,-0.806923414355404,-1.2722528642378200,-0.8966287727034520,-0.9017533397484180,-1.089434567520410,-0.2765951768892760,-0.26748390233094700,-0.4788338952087210,-0.16103159628932200,-0.6444932752278460,-0.7708303845141580,-0.6375767572894730,1.0119378257956300,-1.181932764347820,0.21296757783230500
0.8527070456169230,-1.872559239647190,-0.8487822672053220,-0.9090022876299970,0.5425111919487580,-0.5554210816070770,0.7194911021078590,0.9276978243277220,-0.08036879829632870,1.0319015083867100,0.7135320685189650,1.0968774177653600,-0.9358116605379690,-0.6629665983801210,-0.9666247680061950,-0.15489118698329300,-0.3629092597373130,-0.12517571694526400,0.2858899001658560,-0.393267655144441,-0.46833883707905600
-1.1988975932550800,-0.616188683984078,-1.3560226659336000,-1.3094902520351000,0.7705004758299050,-0.7683593670792090,1.4787247948132400,1.305986160554920,1.5673898578519600,1.0634317040464000,0.7007746107759360,1.179161390694860,-0.770438945896895,-0.5660659152782740,-0.7969597784215820,-0.03161260728109220,-0.3147057606428450,0.010071199278424000,-2.5917687477589900,2.2415405503755400,-0.15058096827760400
1.6358922189622500,-0.9041069363235410,-0.03719762924007240,-0.09748720186176780,1.055206642112150,-0.9864741566432890,1.349528032781250,1.2016702670051200,1.2037330217664300,0.978534281025996,0.8429178899498110,0.7982433435988070,-0.7246907065321680,-0.4069133656788210,-0.7724606705267170,-0.43154892994350300,-0.8778133567234430,-0.38747650715690000,0.8760626272401630,0.10388962445127700,-0.9269751824903980
0.5462432821339690,0.8103153844250820,0.6526493130303900,0.4927055877878530,1.0020781450144800,-0.9172168701442150,0.304216312631328,0.47829836038954700,0.5134174268526990,0.07617281813697390,0.5037320584739040,-0.5241728244375950,-0.4517670205143930,-0.40724376665325600,-0.458668420670072,-0.7371082654768680,-0.26385002318620500,-0.7502619238589650,-0.13289427299704300,0.5152223142617660,0.13984523669047900
-0.7562277126685890,0.16904291330536800,-0.09806647708746610,0.0711393094666954,0.7245112330086160,-0.692586061301774,-0.092233458589961,0.3436107861982240,0.43825597963845800,0.1777236105951820,0.320933394447403,-0.05615993193061330,-0.41488503640249300,-0.41716675862083600,-0.37926400374672200,-0.7309661503500780,-0.9268499743658770,-0.7459702899344840,0.08292028750313940,-0.3630176786630180,-1.116735142799680
0.9122972218497200,1.6478957548671600,1.403365103148250,1.4412297140104600,-2.186537234261440,2.297824446660950,-1.0689776040130700,-1.1588195934250600,-1.2009085842468100,-1.2491356367707400,-2.003672611259460,0.5096690654957390,2.5244786974421600,0.961025382442736,2.503642824374020,-0.6522819139069820,-0.5295098010329390,-0.6923989714217720,1.2505933135629100,-0.2578981046025890,1.9207570498682200
-1.071204358470510,0.9019257374421840,0.12511929835297700,0.0711393094666954,-0.19910141408053200,0.11218576583151400,-1.5969692115303600,-1.3649889179412000,-1.0968862450832800,-0.7632426398126860,-0.029753725398518000,-1.5561929665472600,-0.8974614374563280,-0.3756162132051210,-0.9560392648273950,2.040305886088390,1.9080030619251800,2.1738801172914200,-0.5792208321827830,0.043477780669723200,-0.35747186020592200
3.3023242862810700,-0.16000834493278400,0.3455851570381540,-0.24498187694651800,0.20404651694466900,-0.25218801396889100,0.528698770831213,1.4724957722984000,1.0861888567515800,-0.3627847725194310,-0.5621175536404200,-0.07405148781614910,-0.7279851153177420,-0.717502055396303,-0.726743855510875,-0.9051973641165650,-0.9627563330076490,-0.8976607590754170,0.9275327480990730,-1.8321614272111800,0.1544678645250780
-0.3444141893667380,-1.034509398426800,-0.21672289509172800,0.13919424826507100,-0.14494510430282800,0.144452325381744,-0.198997810825576,-0.6878892367337390,-0.48995225528109900,0.581025928195608,0.4842065818198200,0.6590577236001220,1.0424502938305400,0.6305717676713300,1.0692224924514500,0.8329223413055780,0.8616307627623680,0.8456880743338940,2.048710738906770,-1.077702065205910,-1.2921064111984100
-0.3614477873421630,-1.3386836779029800,-1.6576372786745500,-1.4476201819567100,1.5251843223022400,-1.512798133107810,1.3037401133315100,-0.30688332679796600,0.7009736982798600,-1.2873703042664500,-1.005422325198340,-1.5118914895616100,-0.682526325550288,-0.7023580493071310,-0.6834273039902960,-0.7356922385436420,-0.6200013736195700,-0.7463542216830330,-0.5063210542284230,-0.5909891944935100,-0.07605052503218850
-0.3444141893667380,0.8665798482993260,0.978181715684271,0.9743597378554810,-1.3620194134929400,1.3858103079123200,-1.5220769608738600,-1.2472492066522900,-2.043980368890230,1.2451123408090600,1.7097411703401400,0.6109916100141540,-0.7130460145251910,-0.7306837503089110,-0.7090639410374320,-0.7176319583480660,-0.5927376285231290,-0.7146768528407900,0.36721352743272000,-0.19613556733560000,0.49991901898835900
-0.11213785333821500,-2.042086699191650,-1.3764832526096100,-1.2805870840386300,1.07266541923552,-1.0473613666138600,0.9911347689307220,-1.4874651089729400,-0.09628437963921450,-1.4795272787536400,-1.1999838638265500,-1.7073074524903800,-0.5253497873033490,-0.3270563159975260,-0.5294661744592310,-0.919290356705439,-1.0459487236017200,-0.9067886165400580,0.15474106918885300,0.00475253492725265,-0.1060016660184960
-0.22363049463190600,0.9806452031028930,1.2241914884910900,1.2416126945244100,-0.9493891228950730,0.9595559960369950,-1.1947556018607300,-0.6931700099827620,-1.1785196684967500,1.0149439101776300,1.0221137089271100,0.9119272776828400,-0.6748338947011360,-0.6601561526564200,-0.6716282766211760,-0.7496024632189120,-0.8843685582049420,-0.7231600573000250,-0.2638560819655650,1.086769613987050,0.5185150533107090
-0.28866786871989200,-0.1980301298673070,-1.3413389993514900,-1.4309168721649000,1.4070314332743100,-1.35057506035714,1.4212301893932100,1.0094821822130200,1.718222561231580,-1.4318733766582200,-1.5118350572755000,-1.2605086943381200,-0.6661079899756620,-0.46688486509534100,-0.6818700532233790,1.756417138290770,1.4199651976315200,1.8727231649775000,-0.565183064169405,-0.6584894628170250,0.5006110986860920
-0.31654102904331500,1.1897650202427700,1.6459225275885100,1.7761186078622800,-0.7867535607272650,0.7573714168656140,-0.9928756767275880,1.5741202622765700,0.14900889170066300,1.158830855736850,0.950927490801075,1.268352934866100,-0.6526158114843960,-0.6184583702157570,-0.6583214928301950,1.919942494047390,2.16018916754168,1.8224270600875700,-1.3858098099535700,1.5564650847158800,0.6088312047381930
-0.3072499756021740,0.31526396674874800,-0.04100162880113990,-0.3284984259055590,0.7124556505443630,-0.7129678624170700,0.8818702554587030,0.8751566801377320,1.0773122003109800,-0.6467278223108190,-0.5621175536404200,-0.6605388569491690,-0.19396674133055800,-0.15891659544911300,-0.20192838823884000,0.5250436577007260,0.2735168843648960,0.5481205464225110,0.357548119958877,0.12533063528654700,0.9669585284439040
-0.16478715617134700,-0.3311063771381360,0.3104409037800360,0.3396339657667690,0.4821418058559930,-0.5482509092353790,0.397915524545391,-0.8078975712644380,-0.24108715712629500,-0.3189716016317390,-0.7206812247490040,0.19747044233802800,0.9323772415306010,0.45672432280378600,1.0806991401631900,-0.8240636962044200,-0.7801000290045750,-0.8162299624969010,1.173669828771500,-0.6794593912979670,1.4839936754426200
-0.35989927843530600,0.7525144934957580,0.3104409037800360,0.4732604441012350,-0.9544199021899600,0.8511282048737910,-0.7472676052672730,-0.01681768434261240,-0.5495587663891340,0.8743956587144790,0.570526137690077,1.1400802588101000,0.2461674750397200,0.371491990208588,0.16432857488768800,0.28339085641200700,0.4965209875669750,0.197536524883307,-1.3097726090725700,1.2354256719722200,-1.0374198220347200
-0.4791344642632810,0.9996560955701540,-0.18157864183361000,-0.21157525736290100,-1.205998044549030,1.3258230946297300,-0.8686159669357390,0.31611724782098200,-0.13232361245195500,0.6529464625066760,0.8246424887520320,0.4264177338440260,2.6154366697874600,2.9232280737428000,2.5481992784091000,-0.46623841061942500,-0.3259103539058540,-0.4816249007685590,-0.9984734129682620,1.026193567472250,-2.221718019851140
-0.1740641852559700,0.383960822952463,-0.4799407148804360,-0.653030862308814,0.9351941583515020,-0.932453133682321,0.972625682577999,0.9902890673268340,0.31289089671954900,0.8742657910551140,0.30198499427795800,0.9114193450657490,-0.584411740410804,-0.8118594207976680,-0.580041628148952,0.8242756295286360,0.8883420848441320,0.8945712494330110,0.11786704672820800,-0.6980110426783610,0.13127597764715100
-0.47114396339956600,0.5327719645720650,1.4053869363987700,1.2969213237454900,-1.095134899486060,1.088621785891110,-0.6724750445338720,-0.8380799780307740,0.9032312571791110,-1.27087251694363,-0.5846769231000390,-1.2680793924340300,1.2208101457785500,1.2521263138623800,1.2664463281071400,-0.7967882766825160,-0.8309508427518240,-0.808522242054312,-0.1465531750886510,0.7555684873175170,-1.9771523504301600
-0.6093206043965870,0.664736561857372,1.3020813116711400,1.418793335373890,-1.613130538537060,1.7005256494306300,-1.0795286773437000,-1.2242981349732700,0.6037637254206070,-1.0353747820982400,-2.244980529900780,0.15005894156294600,2.6132907502711800,2.169563842649390,2.5303517545244100,-0.49468818214789100,-0.3884829183320480,-0.547064227913943,-0.18979874378194700,0.37703153354790600,2.0061310373738100
-0.4296909711004590,-3.2520849958661100,-1.9262194610672200,-1.469573340219060,1.1563829283007500,-1.147902084360000,0.5822711908519880,0.8809062769647940,-0.8203688156245040,1.0963339186834100,1.2737240566224900,0.5488040726448320,-0.664788467356306,-0.9108361723937170,-0.6848344259677570,-0.981538992939941,-1.032204529815070,-0.9845324449137670,-0.3429216397110070,1.1664083111065200,0.2084489411775970
-0.3444820424856300,0.1396859301051920,-0.015065403606110400,-0.06804520649252190,0.21564295280096200,-0.245424635472363,0.42334802839625400,0.2883319949343140,0.5248121875401220,0.3593197443998750,-0.08778742306559020,0.5221396325425040,0.052958630946101300,-0.475637820799918,0.19704323935908200,0.3229401709593110,0.2962031402597040,0.4155818522854390,-0.37278658982661400,0.3296710431780490,0.4635252473213540
-0.4550233552832470,0.17899453355187900,-1.1256008694281100,-1.2867653227764600,-0.10424459011426000,0.05632342055852230,-0.26380326218232100,-0.07168403167665850,-0.5695981456703450,0.18294935793521000,0.29159442493368700,0.05078925818315730,0.4152746618183290,0.34765417497233400,0.4856447071118440,-0.6884628082473560,-0.6466358537125560,-0.6948733739654450,1.8682569778886300,-1.766983211459840,-1.3263969739132300
-0.4826586834826510,0.414846154232003,1.3020813116711400,1.443167737699570,-0.4676646511369870,0.43024821587770300,-0.4394706047589630,-0.8940503457516410,0.37788040563400200,-0.4690328141759530,0.32252164898193500,-0.7860367569745330,-0.638934385637403,1.1928116393241600,-0.654042423239262,0.8002118385971340,0.6969180441997200,0.8631599036573380,0.6675572514944110,-0.7307391091743490,0.1042799841763450
-0.6162294364464380,0.2519962256671560,-0.4024614963347150,-0.1167940111438800,0.43704617092106700,-0.47013206433672200,0.6250010680419110,0.4977740635623420,0.48420182840214800,0.4232326800056600,-0.023863260358454800,0.5607901490201140,-0.9366838955557410,-0.8726327031844850,-0.9837136714711500,1.9626315980366300,2.084363645787440,1.8203563348494400,-0.8055265400087280,0.9840875335279070,-0.554578771195111
-0.48956751553250200,0.28568931433574500,0.47563631385012200,0.4316300411838940,-0.1864879438400530,0.16352090985410800,0.38311010695869100,0.10713373486681600,1.09632008552846,0.003524974828371820,-0.6167600845841100,0.41990968515328000,-0.2520705236548010,-0.6834185347423900,-0.2224970450139000,-1.0708228360493000,-0.9869494643702870,-1.0834714530999200,-1.0720568388332500,0.8955829823048030,0.39128855405087400
2.4535949377040500,0.33342118994957900,-0.9706424323366680,-1.2989525239393000,1.9072980617284600,-1.7999760180161400,1.489056294287560,1.8459586373507000,-1.1323501008994500,1.5855484931810100,1.9857190311322200,0.6824458573786440,-0.6585959228854390,-0.8153696593834100,-0.6643930499836310,-0.7287488572062550,-0.8243230554541230,-0.7156558492578870,-1.8903763982126200,0.8942622783186110,0.11653755569610800
1.9676737501978600,-0.15232083835591300,0.24319865821295900,0.2975708283926610,-1.3490986353769700,1.3940610113801100,-2.399355690682470,-1.8484534585704900,-2.471829766629610,-2.045385825465970,0.002077459724304620,-2.5964022986112000,0.34028786585870900,0.3018824288157280,0.2830699539709860,-0.6624386301133360,-0.6375275124202530,-0.7031401703713280,0.9888012158340660,-0.5250864824640230,1.0700805346253200
-0.3490879305188640,0.2183031369985670,0.19154584584914500,0.005078000484514580,0.16419698638867400,-0.2374130571246480,0.37922090838693000,0.26617217399702700,0.6910464423999140,0.29549097859515300,-0.6195533946635690,0.8041615064685310,-0.9071371191723790,-0.6942840883224090,-0.9730337392488070,1.5134293462648700,1.3812472617651600,1.5435904213513800,1.177537433517510,-1.681792323524800,-0.6334397365300510
0.7394406439896220,0.2021030195042950,0.4566744482958400,0.4378439012805030,0.3300550119861960,-0.36334735863074400,-0.42228586494805900,-0.4566964177098270,-0.23696412545011800,0.33755373588749200,0.6366367751978430,-0.7364883891533790,0.5137455609131980,0.005821467372149770,0.6708133093939000,0.6599679755173460,0.765751220398316,0.7592365578131040,1.4816541996396200,-1.4382022106703700,-1.04557754004027
0.13220110743698000,0.5877674970904730,0.7786821115120580,0.7192124411197760,0.8747938574379560,-0.875168525202718,-0.6546282938049340,-0.4766214526395750,-0.9984867739291820,0.1527903123543760,0.696450170658577,-1.393513276627580,-0.8733942747351790,-0.6287438816672330,-0.901450187860456,-0.6812732224273690,-0.7472110234237840,-0.7051165370340130,-1.8175996599848200,2.0050310330729700,-0.5164456741068370
-0.019608776701180200,0.8176828587283870,0.30759682643648000,0.18518643693503200,-0.373269357785599,0.28589764980779700,-0.5358933579929790,-0.5953300007613730,-0.30107365943504600,0.042234970585651200,-0.2586183178226310,0.8292533176038220,1.4663772456344900,1.932560536058040,1.165080304330100,-0.68055927937897,-0.6999732811692470,-0.7045984714959290,-0.6226324266832990,0.8921329525344770,-1.8712865981127100
-2.213261602497600,-3.0241286679954600,-2.5546935132632300,-2.6916633275440700,0.09678553171163710,-0.09977575813174090,2.9952490738949600,3.0602274564558300,2.8710654560191800,1.5970923123250600,1.3336664157802800,0.8632843935831850,0.4662386461000010,0.5735635380449010,0.4411571300090920,-0.06626135448728060,-0.4520484589313440,-0.04533668211087520,0.29214588147700600,-0.5078365734291010,1.0192763206742000
1.4301756168182500,0.6804753042025350,0.9277597333714180,0.8397989581937510,1.4412629180829500,-1.373045861807690,0.17549787676960000,0.06198894626579920,0.1260357255347460,1.1746934067395000,0.6838634751111190,1.429612865541740,1.062336476839070,-0.26872943618202800,1.2988490255738900,-0.6022220281956970,-0.6732156010564010,-0.6160856548159650,1.5851771278754900,-0.8810037299193570,-1.2000658590471100
-1.3707167455308100,-0.565517623383578,-1.2487735457752400,-1.1441363584280700,-2.079502330561870,2.1673163443452900,0.14287112329897900,0.30431806060896900,0.5759214800723150,-1.2280406809401000,-1.0672344242918500,-0.651779109018315,-0.6539312365747230,-1.1278654683653600,-0.6282947576412120,-0.6035233401974340,-0.5877365829236830,-0.6277577849344350,-0.25819585537986100,-0.8488393295924880,0.36153813724937000
-0.5737148538054660,-0.40235188286634900,-0.8730979386896510,-0.7220835486691570,-1.371879197412780,1.3911572442602400,0.10726718126694600,0.17029527304607700,0.5118625832867410,-1.4187204921103500,-1.2155722828317400,-0.8104097680549970,-0.9609452551341090,-1.1383377515073000,-0.9465879428599370,-0.6792070479055350,-0.7138323454221000,-0.7022352890330800,-0.6319058498007580,-0.19213236548094200,0.12952422445941300
0.5496782888169210,0.1872697703663650,0.4984161824164610,0.5124926975643920,0.6607689900845970,-0.6086670493933420,0.019860232088637300,-0.06689976511142020,-0.34556835930152100,0.7940910999578190,1.019849071853010,-0.47347585711719900,-0.927147551054235,1.1710660566979800,-0.9464800197048270,-0.6541044071930330,-0.4011599603953360,-0.6893480358891450,-0.19755547050211000,0.19802566868269000,0.19629154059418000
0.21569654371296800,-0.016687405280171200,0.28374440693898300,0.36319510499661400,0.164841252844414,-0.22968043716445700,0.004454846798262670,-0.07361275723347850,0.01890121659924140,0.14553551382293500,-0.36227095463550700,1.4214745865702200,-1.060240297397160,-1.096764828841760,-1.054854833152010,0.65419393059505,0.5829048136857450,0.674769640670483,-1.4047901805305200,1.5635767435622800,-0.19011205715767800
1.134146342748840,0.4987680022628930,0.9575752577432900,0.9345455073233020,1.2155557421945800,-1.1637655899206400,-0.3452219528895670,-0.4645713458870020,-0.7563033311532480,0.36423064009968800,0.20145220825814000,0.4821363426142560,-0.5092015984203520,1.3329369202575700,-0.53258597362754,0.5232747829371540,0.6816298695953100,0.6482960332416180,0.3146370414476290,-0.7800455653962770,0.43151315050890300
-0.5813053480123740,0.650808805926675,0.11677747045650000,0.12776428594742500,-0.8617274885088240,0.8452123193396170,-1.3940809231122400,-1.1916300022039200,-1.0777910291454600,-1.9030587426300800,-2.1713524032139000,0.5247647430515710,-0.443756562833946,-0.7413246572851910,-0.4842174087718140,2.8036847537375000,2.7606893985936500,2.7061298157718300,0.898951101435516,-0.34557408075297600,0.7746248233087230
0.5572687830238290,0.38381032144393700,0.3493385605571010,0.4378439012805030,-0.09768493007327570,0.02386702249833600,-0.09308994136961620,-0.2714679948300890,-0.3875991830976550,-0.058402076091971400,0.503130265936674,-1.4848598489932600,1.9199188466629400,-0.014182494581764500,1.918571354310810,-0.6739707630017280,-0.515798048951124,-0.6979535921835940,0.36011409100611400,0.33486745738908500,1.9107195316698200
-0.37080714553870500,-1.0298232698282500,-1.0439267870508100,-1.0670887505998300,0.79407016649365,-0.813795910705185,0.5427221163257100,0.26481192619346400,0.5924478996108330,-0.7475640996584050,-0.6905495390525060,0.017074555778056600,-0.2401173013077930,-0.3993601587243930,-0.21790849046996000,-0.5061420092878010,-0.5846625452769940,-0.5053675410876110,0.3364122074551360,0.5528692142367420,0.27016314889040700
-0.9465295838056340,-0.07213367165711940,-0.5958895393895180,-0.2940795769369610,-0.10369399722256000,0.0658764392453694,-1.555454099087910,-0.6478452616648070,-1.8587752128090400,1.1501209599636000,0.3503552158505120,1.4949836959260000,-0.019742846722723300,-0.019953570069546900,-0.0394263148015467,0.4449652811992620,0.4601519664379430,0.49204111860922500,-1.8439526411440800,1.0894706544825800,0.7628637636551600
1.5205626956692000,-2.0703898524564900,-1.2589846659282300,-1.9913388495445600,2.1419745869652400,-1.8925250905424500,1.4394994660032000,0.007695613347961960,1.0970366073380300,-2.6840570545661100,-2.7280274393193200,0.8978820120715820,-0.5949233597057800,-0.22215240251747300,-0.6382202293525920,3.167184246464740,3.1615917991195200,3.154363376101190,2.011808971298190,-2.2923602548241900,-0.718175567035571
-0.33431769522601300,1.5393632483423700,1.2500239209750000,1.142709213240760,-0.9848760244076080,0.9715478335568800,-0.001964359565877510,-0.15313930559451700,-0.08586896771888800,0.4313696775606450,1.0283391277927700,-1.4126418950172300,-0.16683039974507300,-0.34278450011784500,-0.1594883713792310,-0.3758621012576400,-0.29573987830795800,-0.38055456025536800,-0.048399156767606300,-0.21745004802698400,-1.4906988611485800
-0.4052694041673590,-0.9101120700568550,-0.8826333778927450,-0.6385727956345440,-0.0691598141506657,-0.010235230826896600,-1.2444027009578600,-0.9103316304865250,-0.9024928249413760,0.21213467709832500,-0.03952045405108880,0.4968435676917510,-0.2887521763741910,-0.04807273559200530,-0.25962223749241200,-0.4735157795568220,-0.49394207207264800,-0.4697567869490890,0.02153622330705640,-0.08595252019281950,-1.156868892693790
-0.6262332977275540,0.2593742661713470,0.12097005686854900,0.24366593517633900,-0.08162521310964750,0.030280270453195900,-0.5031186056629060,0.9160112065949860,-0.09785925429534810,0.3671058541740960,-0.03128598449578860,0.798365064762513,-0.644762673068403,-0.770582643035512,-0.6508982409596520,-0.21243984760477200,-0.1645073974479210,-0.19988457199872000,-0.971888965626959,0.9844467055224360,-0.3544093661355870
0.9083508070895770,-0.5233528092569770,-0.41667464032500100,-0.27727502968342000,0.2800080336586010,-0.3581225571133040,1.7259434192442700,2.150865874771920,1.1930132971968700,-0.4057498944453040,0.13513399280446400,-1.172917444700100,0.790480987794583,0.9620215999867450,0.8499946815585470,-0.3720372669398000,-0.3295588987137290,-0.36577007942250900,-0.11124314302676600,-1.103596491346040,0.941845965707129
2.4084726532780500,0.39750257359987500,1.0528875320040400,0.8150205417967200,-1.0800204588771300,1.0906046194009800,0.9213018032020590,1.1043233714875600,1.8513356657927100,-0.5190108091418210,0.24003592140324500,-1.6322826770669000,3.0339173188223200,2.9066304603484100,3.0090411716239700,0.10435020705253500,0.01812233433758210,0.10630964446489300,1.0612579601474300,-0.7036943149369430,2.328280452789170
-0.5917710390989000,0.8303046035425950,0.6765362439685500,0.8066182681699500,0.23634589622370800,-0.30173948616533800,-0.7438416636929520,0.43929514251914100,-0.6547749234443380,0.22833682657504300,0.07450780883142210,0.2641483230727270,0.05030267138129100,0.16482785562430700,0.04115135647419650,-0.5335495364676490,-0.5504020263559760,-0.544960050764626,-0.7352562543045100,1.270035051165860,0.5774437339960300
-0.6465052145679390,0.01995186662856580,-0.47043911004435600,-0.3949068604582050,0.0908997702874568,-0.15574572146723800,-0.9458554234074010,-0.8227384786342420,-0.8761505554546150,0.6287814226042890,0.22428755207245500,0.7350360982931110,-0.6169085287887430,-0.7832509364196590,-0.6187342966595270,-0.5815183365082980,-0.6470280650427190,-0.5929893534801510,-0.5053814558395980,0.8654089910556200,-0.2204631180211140
-0.16403359376678000,1.5025290330281000,2.0923339465782300,1.8569024715162400,-1.9778410293975500,2.1752328700728500,-0.0043522407456928100,-1.5894848955547100,0.06937966172774130,1.290159232922350,1.6496015060107300,-1.0526501551861600,-0.6499785694594180,-0.6366457238413840,-0.657517600639137,-0.09274421571399870,-0.0668013771421791,-0.10910973682447400,1.1828265332387500,-0.39069202305630300,-0.5453184163866480
-0.7519191821379400,0.05678608194283990,-0.5242035797637110,-0.2016545670424870,0.7539180835365000,-0.8013780359088430,0.3695222883453570,-0.7594635629802430,-0.3272913930025860,0.048373206913262700,-0.21287770784690900,0.5661588543746870,-0.6526851228260690,-0.8106772456416430,-0.6583714279026620,-0.5686906413797590,-0.5072238395349240,-0.5843214583927610,-0.3977202787370660,0.03151503592006100,-0.39466284361660600
0.44273835946811600,-0.7430427869069960,1.0807191929809100,1.063172571650670,-1.4662096468323800,1.5085183509223800,0.7243201446102390,0.7390945937775560,0.9760478552638280,0.03225678121315080,1.5545078623273600,-1.7736292521382300,-0.6793553636186960,-0.6828104386076740,-0.676109386053954,-0.7658556260365560,-0.7463827484351020,-0.7744582369645740,1.650623188163820,-1.6754784151446800,-0.37016097814497900
0.6094163300914060,0.9382781404992490,-0.4826633364748300,-0.9042285850707550,-0.027367126517225600,-0.04410339751734250,-1.0688499555285000,-0.98971794441597,-0.027173405875366500,0.8569290045040740,0.28393332419638400,0.6367084713416350,-0.9311926179926550,-1.0283774828392400,-0.9431713889572870,-0.72210851845002,-0.7670930884992960,-0.7234994192408010,0.09329026630175860,-0.43453201022641400,-0.0053044828934632100
-1.046946002977540,-0.48119772444208900,-0.46777397905144200,-0.41613287825055500,0.01680922462464430,-0.052105134815426500,-1.9673747732621100,-2.086533109725560,-2.1514752467617500,1.5929009358053300,0.8081464605199210,0.8369232597053830,2.5983159839882200,1.8987351520860700,2.5265117246425600,-0.7044033502005150,-0.7357401670654100,-0.7243059570296150,0.8153237667574570,-0.3356072170128530,2.269472998577160
-1.1407023614531400,-1.9971428229231300,-1.5546970709587700,-1.0243752205957300,-0.37897122904455900,0.29435311180409800,1.5399750580750400,1.695428507237250,0.9044500092560100,-1.9836250820496800,-1.9563118152547900,0.042909056279916800,-0.1393189252537490,-0.10655255600909600,-0.1401002327291720,-0.20001355189767600,-0.29192481914178900,-0.18796318386827900,-0.23025300811500400,0.15761830948921000,-0.8555463682602340
0.9636070176658990,-0.5914482770588920,1.2593914820615700,1.5062132901490000,-1.6922697488127700,1.7810494737810000,0.6600567602506980,0.45526454817267600,0.6458666710561820,-1.272648144210960,0.4652391946841180,-2.0779446712907400,-0.7560862210579460,-0.8453169438654320,-0.7497355954942200,-0.6570167198775720,-0.7848182868151600,-0.6453855679046430,-0.44646210619774600,0.6790671377118690,-0.31441556243506000
0.3906514936483370,-0.6603548724443930,-0.6464462681320980,-0.7315177965036070,1.6649742737036900,-1.513185303545040,0.7503669538417030,-0.3148774557424600,-0.06057419231835260,-0.3257310238930220,-0.5822733688912670,0.3208140274788290,-0.8986471851472220,-1.0581507645265900,-0.904523216969085,1.470990151486340,1.148721182597930,1.587315539483820,1.9910777053640700,-1.198680678119770,-0.14379011136696500
-0.27606038884482500,-0.09532079028327850,0.29158324954134800,0.25969194657741600,0.3895393953473530,-0.41397106337353800,-0.38601849837216200,-0.38829841561918500,-0.5048619042717380,-0.38439920633563200,-0.6623580114126410,0.35307085449298900,0.9663771900788350,1.377689982532910,1.011601265103940,-0.17719154517740800,-0.26380166749103700,-0.1518329501937,-0.8156901539558780,1.4445372291132800,-1.0479009864990000
-0.9011027786821650,0.6764330780343420,-0.06576132861996490,-0.08572963055688030,0.5269258970488910,-0.5434890006772950,-0.8409741375225230,-0.706467362683162,-1.591605282142460,1.4102836966898700,0.7756944523685920,0.6673983294119930,-0.3672455499891770,-0.2710481990424840,-0.3992323569245640,2.6342237956639700,2.56497824042815,2.5670206376175100,-0.23713249249262600,-0.8522152656516280,-0.7031297166366630
0.796929047042608,2.2061594955924800,0.8722681890534810,0.755296818117927,0.8977874098206060,-0.8938913768189200,-0.953560777429345,-0.5221218105065100,0.42640495430486800,-0.1458167710326130,-0.48009706496511000,0.40947082810670400,-0.8358504329220710,-1.005809940684020,-0.8429635621807560,-0.5921372358877590,-0.6724769876789060,-0.5936126393461560,-1.4617789596263400,0.5760694111964470,0.2645476396000410
2.026179080389380,0.08383635771902620,1.3189489117551200,1.1607917130147100,-1.2738975242054300,1.2911542860223600,1.0265922048686300,1.1921022907044700,1.0592246955849800,0.32240824251289200,1.2213249829071600,-1.0895674227992600,0.8502424612431780,1.2732049805031200,0.9571390585787410,-0.6163205404454590,-0.60151913484883,-0.6098735863118580,-0.7970708200908380,1.2819896844858200,1.0854926732227700
-1.474058302699730,0.3181187820297320,-1.822705504579750,-1.9705299753548900,0.27761386603069400,-0.36208275947416900,0.5221548723965420,0.7522343333594210,0.8810986046932880,-0.683602214895864,-1.2992566765889400,0.8369232597053830,0.017080101049538000,0.6246356160503150,-0.07435071993878850,0.11517907676586500,0.2848771988006960,0.0547108196385846,0.32470487329315600,-0.8500704551773660,1.1359524157193700
-0.3906514936483370,0.345681420183933,0.2171364624244080,0.38734774682269900,1.0650652088364900,-1.0522471863081100,-0.006687851928217030,0.17389182544146700,-0.5574027587894900,0.5810437816924230,-0.1285493398908040,0.8369232597053830,0.17568055962174600,-0.1761994055978830,0.23493441092258800,0.2146540640567910,0.8651802781487580,0.2018845441197190,-0.8866322594018890,1.2073022693360600,-1.3152175208829700
0.7031658798828710,-0.24407902583860100,0.23340081670982500,0.2827484716218110,0.4218119330399950,-0.47844324717421500,1.3788107819502600,1.035353269217440,1.718513959068000,-0.6467383988406540,-1.444239136216340,-0.10209228790201700,2.130997773813860,2.07126206591582,2.1281151597685800,-0.131193500763645,-0.3568346063883850,-0.09130866246784350,0.5124427100301040,-0.0451447257312955,-1.9047990796890300
-1.1426445548096700,0.955020617878547,0.23340081670982500,0.30932535146093700,-0.7445733955829760,0.7708219904580890,-0.2782979905676780,0.9922077637340230,-0.05980950449589270,0.22687277873850500,-1.2959810280853700,0.6852208386128210,-0.48011046050063900,-0.6570340521715300,-0.4656682534885970,-0.2824987440516150,0.04170115040052580,-0.3177965300830390,-0.7795783798939190,0.580879663562593,0.6062905315919280
-0.577600544189504,0.8763911330446360,0.4444207331871990,0.4776455904420680,-0.4268249198665550,0.38690945007684400,0.5109661976897860,1.2645658187202600,1.1029656166349300,-0.5903212386447410,-1.8176406727418800,0.08988269363173750,0.023658388175927300,0.5316855439815680,-0.0893927077498116,-1.0047982550541700,-1.1128139962869300,-1.0214258990846500,0.4827332458057420,-1.2724092671142800,1.1644304061869500
-1.5946797633058000,-1.8363260937253100,-2.529041726266710,-2.516682871432790,2.457422467913720,-2.259865483437360,0.20154340861261400,-2.5370291734807800,0.9328489099814330,-2.4373700050588100,1.5414121127751000,-2.7736653067830900,-0.3099013047703320,-0.34691359851000500,-0.32165287240335300,2.098731446764580,2.01384160252017,2.192338455690360,-1.330721611913940,0.5726369906494140,-1.1705953067164100
2.078106305725270,-0.9320870181353260,0.7129915359765850,0.6902606291550750,0.42483446162528400,-0.49635900162868400,0.6232160597139370,0.058186348099216000,0.14307871893529900,-0.4449698230391290,0.815705166647851,-0.7064579705082820,-0.06793063700759650,0.0561535923813018,-0.04136805891897410,-0.2612232670794520,-0.3859905222305410,-0.2000773842234520,0.5067114969472310,0.2308856227738300,-1.1093263263161700
-0.48342654241947600,0.3652994816242120,0.36768621810451700,0.35362015119281300,-0.9093932197449020,0.9066613103682470,-0.8908923981993460,0.20561438807173700,-0.1982320635442790,0.9249273925781180,-0.06584580618375780,0.8877007987070810,-0.8867219418226680,-1.0786964651156400,-0.8530070568662790,-0.4052558332546220,-0.322700252802951,-0.40459997791092900,0.595054087538368,-1.0666112851964400,-0.21807979044000600
-0.10673053533936600,0.4635863376666010,0.6362570208939030,0.7168375089942010,-1.3166250917905300,1.4440558613960500,-1.7758996105843900,0.15724375743569400,-1.4760919415128200,1.0543616270665900,0.21952072009187100,0.9029532036570520,0.32873394574048500,0.3036705827358090,0.3128459321274230,-0.13958244976249700,-0.1925842910636720,-0.11490507360145600,0.8107528737630550,-0.04410355671403890,0.8369050053301670
-0.27624373852541600,1.426797526882020,0.8472769373712780,0.8142860684043300,-1.2411732642057300,1.34078498623037,-1.6834265702139600,0.21423705046886500,-1.3015237848712200,1.5396006857886700,0.5921526558894070,1.216977275480990,-0.6582940012326700,-0.6332406428259540,-0.660673419814916,-0.7662805743282940,-0.816837656184429,-0.7941815727891900,-0.42159280183401600,0.3988163024798440,0.3163232211253080
0.9103486837769320,0.3652994816242120,0.8856441949126180,0.7788502286188290,-0.021590236629739700,-0.03658417811307590,0.0681266252733082,-0.0679431633397649,-0.43489127204955100,0.5199222620025030,0.9030242900287670,0.15714400103042500,-0.7126914022594670,-0.817409267229537,-0.6940518190509970,-0.9666864740274020,-0.8789342670492720,-1.0042131085275600,1.3650605767091400,-1.5910788630492600,-0.6756465874067900
0.5901570777588380,0.8567337618361580,0.3101353317925060,0.2827484716218110,0.3892438377014300,-0.5060492279272600,1.4998651048525500,0.4463053482441950,1.1485609163674600,-0.5509604292057300,-0.20427502540292000,-0.4538476888489580,2.058191699167370,1.889269397469370,2.0919214029235600,-0.4593860169021780,-0.34536783928437000,-0.4394869034413750,1.2075227419822500,-0.8974620004255920,1.5430133416681400
-0.9166269505616030,-0.89277227571837,-1.4931257726505100,-1.5421972773315000,0.7533357209594050,-0.7975786049063700,0.5163615904564510,-0.9930209768679090,-1.1581941349770000,0.04468066662606050,-0.036173600390653400,0.048092221461124300,-0.8520942057019090,-0.8919123103695900,-0.8287725749184330,2.1122572311895200,2.1659802491877100,1.9870141613240800,-1.551372704290730,1.327037043061570,0.009953963751495000
0.8161746820069040,-1.403863927138790,-0.6490461067410140,-0.6474423227475970,0.21353170658060300,-0.2743538553426320,-0.1703731989835630,-0.775720430302988,-0.4172254195363590,0.35999448198866200,0.79234032358794,0.048092221461124300,-0.5738378536023580,-0.4268348462616160,-0.5782957316082000,0.2059164372697760,0.19054042918214200,0.20864249511506100,-1.3970122348433200,1.8065540757036700,0.6015306209144130
-0.1344044620415930,-0.04571074431327500,-0.5803651635222450,-0.5288512027400040,0.08507803528416220,-0.19689536666810000,0.7142571004100450,1.6964545402115800,1.4265036879273700,-0.41824719579076300,-0.8953330833339200,0.7213608214812700,0.30837642685950800,0.3994131916523770,0.344254857237155,-0.8158536731383700,-0.931822417105886,-0.8114227374786400,1.2476988682254800,-1.568978514530490,-0.3364648085136730
0.8872836398522770,0.9800693484117440,2.0340242797262300,1.9381604024122700,-0.49982060456007700,0.495194943982614,-1.1223791602363700,-0.7436340641487600,-0.7866087278304560,-0.9698312306991350,-0.4688679317661470,-0.26099124798162900,0.4582778019852350,-0.3222156166361030,0.5122580295861590,-0.013132117830272100,0.2569830263982650,-0.01869247367921220,-0.9850635468501670,1.3205675437717700,-0.8045314661512190
0.7973236811949550,0.7259486003650630,1.0124351275325000,0.7853512411261630,-0.7404517673989170,0.748094966259161,-0.7764938556568110,-0.811282106469253,-0.796637550359122,0.28673594941757000,1.0519820572807000,-0.9979368137649570,-0.914913363919875,-1.0460328095527900,-0.9203889989519960,-0.5503468973085470,-0.16227085940733800,-0.5802616110171760,-1.5190263239316800,-0.2533032251363770,0.6118656272624160
0.0647925892710483,-0.03331461026221740,-0.6352893114896500,-0.5057950195142810,0.22253398398649900,-0.31639282393653400,1.2370512333470500,-1.4316963208180400,-1.5111545428906200,0.5469903135552800,0.9516489891580420,-0.6936464161151310,-0.27999612525529000,2.3977835615751800,-0.30926866025403600,-0.01809839259473720,0.20769326045052400,0.003745688283623040,1.8680949045213300,0.9418227441583950,-0.26171032626855100
0.6880865885396360,0.14023126645258900,0.2544818855823110,0.44527253854676000,-0.7777424801668840,0.8488318141333700,-0.7167453504567200,-0.4172829776443400,-0.06001987111067800,0.6586695032445050,1.151469537095230,-0.8255924286241180,-0.8928082465571930,-0.9566887320460520,-0.90330441242817,-0.8265698098348770,-0.9814320175773670,-0.8100377648257500,-0.5556684008785470,0.8825238474062420,0.692817250023807
-1.7858122745367200,0.23940033886105100,-1.6019543157159800,-1.8257615091868800,2.7306457394980800,-2.5517533341091700,0.1521112555540720,1.005851945328810,-1.6311063938820300,1.2380385068071300,-1.0926924940530000,2.372429048144300,-0.9126216310443240,-0.9915648327033600,-0.9189673651787620,-0.23231100471719900,-0.706918511042432,-0.16773337073575000,0.3682885024721610,-0.07312053208029910,0.550529037341625
-1.2010725432641200,-0.03021557674945300,-1.3383184054724300,-1.3588737988660000,0.9338783651255340,-1.0194713088966900,2.0472069539853100,1.53762763901277,1.42061207211196,-1.1819789364331200,-1.0406831211373400,0.2674401958120960,-0.5699518493631570,-0.6386481259512340,-0.5726618548264630,-0.14624094247398800,-0.4995828314718960,-0.10643362533419900,0.19485375103352400,-0.7766914932753650,0.0837221681069654
-0.8797869766308320,0.44083751719073700,-0.48150169718091600,-0.5057950195142810,0.27122739961346800,-0.3605852083286460,0.3912877413307690,0.08135984212381190,0.24034234721441200,0.839663906443711,0.30505503374757500,0.2629642698874420,0.5125492733157930,0.5192917207730730,0.4453315106783890,0.1163355668053110,-0.02606147961791840,0.09512929250000540,0.25240354509037000,-0.12166179857645200,1.8539329856630100
2.0696145250627900,-3.1540413576159800,1.0783441050933900,1.0332052108026800,-0.3658471782668110,0.34287013347979200,-0.7766819891707490,-0.3985164287157170,-0.24412953470100100,-0.1279600183520390,-0.7219696236104660,0.7410291259023350,-0.7901595173899430,-0.3674621135119010,-0.7886315017687670,2.831342772082230,2.6962370668700900,2.87646532870755,0.8639833083258980,-2.031938267973880,0.9225894775251280
0.28326677458168700,0.08444866322283010,-0.2947595940917390,-0.2175927291927540,0.13138990176710700,-0.21877753227741200,0.799323677423667,0.9741276406744440,0.31544519956216400,-0.757683524965147,-1.0430727965556100,0.6269529602601590,-0.5165489041679390,-0.7652652367956710,-0.49948654336302400,-0.6405374943891040,-0.3404081360714240,-0.6449251757413880,0.14973807206875500,0.09059511895045420,0.01074946895402990
-0.3785814926828950,0.14023126645258900,0.41925432948452600,0.554789408868941,-1.0465169066023900,1.1672380129357700,-1.1674805416223000,-0.9490597363488670,1.134182568884380,-1.7656167295004300,-0.10788234066600500,-1.3199469333662800,2.573056035313350,1.0030344179017600,2.546713927391550,1.0933460825280900,1.1868060384939200,0.9755025609832370,-1.4828025809425000,0.9358844408295440,-1.9743059098301400
-0.4107100493462250,0.5121152879843190,0.13364876005402000,0.18589047725738500,-0.9443744882797940,1.0616457034258700,-0.7814570649079630,-0.5439499732064290,0.49257074507360400,1.6512194562724100,1.9103457738409400,-0.8940625816354990,1.024740100223840,0.7683545752947120,1.0641510118779700,-0.7979340891285400,-0.6992231399185320,-0.8113361116623020,-0.40250009913461500,0.6543001364564820,-1.3491935041134000
0.7929528900707390,-0.6530712082654170,-0.00518994636244101,-0.005183889730167190,-0.6518857752692530,0.6915214726721490,-0.4183426202573990,-0.4900621801355050,-0.35334014644124000,-0.9340863523414230,-0.34951267364307400,-1.2149178119143200,-1.0306545489549300,-1.2520883054487400,-0.9944569786963880,-0.11842259476828100,-0.23037695391224800,-0.06632970805724590,0.36171727633305500,1.2445898542584500,-0.15038720491399100
1.131367931021430,0.9058729663036430,0.7006427589295360,0.6302128800532650,0.269280193507247,-0.33775366469198400,-0.43560070784031900,-0.3189733472298360,-0.5573824085897920,0.3511604020895190,-0.09862953369455090,0.6588865786821700,-1.1090311383000900,-1.2894292994500500,-1.0941316144801900,-0.509328353813652,-0.5906041243224410,-0.5364460255401150,-0.8266697421176070,-0.16010204941190300,-0.19835484524478300
1.0915543967919400,1.7822523941694900,1.3545760005971000,1.2522796476734100,1.3234659338898400,-1.30730632358808,-0.27605867448127900,0.3128673530910370,-0.5320166187902940,2.2335173301548200,2.371578255534800,1.815409775832210,1.4809210681597700,1.3333070108691800,1.3124891317057200,2.7870171585230000,1.9807383982038400,2.7192221274008500,-0.6598952462116290,1.5402501104971000,1.6163743339532100
-1.556045629469360,-2.506950767212410,-2.901180016604530,-3.008877710524570,2.623777352779310,-2.5578963786289000,2.8717239905731500,1.9516675643481800,2.3695927052893400,-0.43929149776340700,-1.1826114562366500,0.05607225710447820,0.31839166928358,0.4485326175364070,0.32086318657880400,-0.7140813339671630,-0.9340608878401650,-0.6817438988169650,-0.9762894569295050,-1.104076657581860,0.8069713340344160
0.13602957528410000,-0.0632004395095565,0.2024079081351990,0.17699280650144600,-0.3642973630592320,0.3682893902716680,-0.3091784289791270,-0.3276661452688690,-0.05796049283497910,-0.49496226987156900,-0.42592066532809200,-0.47880584727953500,1.135097399139620,1.0412424737853500,1.3166540271385000,-0.7576633462577200,-0.9465417521024580,-0.7386590793092380,1.335777924754250,-0.9534588923749570,0.7803385851783120
-0.5208937395025380,-0.15589441745690600,0.057089409986851100,0.17254947244701700,-0.5810775564915340,0.5758881077344690,-0.5850336970399900,-0.7705051899085820,-0.6923573756967130,-0.3515960674525570,-0.2867300516158130,-0.32837957000544300,-1.0902547908889400,-1.362675944399570,-1.0939616788166600,-0.6960571441441750,-0.8757895368346490,-0.6774040752493140,-0.3917365362667940,0.1036459670831780,-0.27098837275993600
-1.6157659308136000,0.3412823733516050,-0.23354758630984500,-0.06739056649218150,-1.0971829918328100,1.1435413702995700,-0.8170592217683950,-1.1293148918376300,-0.8249149600023190,-1.3371611299694000,-0.8370652342588740,-1.6330164935818800,0.39304507193006300,0.013363178146137800,0.4357869041130090,0.98869636536028,-0.05408435072329430,1.155599833520500,-1.1031790807101100,1.40695281958552,0.5713476259718250
-1.1180967529449400,-0.07162716477749740,-0.16088833723567100,-0.205133922179499,-0.9351309414543360,1.0180876172375900,-0.5454763820649980,-0.7411149918103980,-0.6058993335523690,-0.8221874189042750,-0.7855090665106270,-0.8128500556534070,0.15965367053075300,-0.14142118469481800,0.107737010318374,0.5748200300107640,0.112909616610991,0.5431199201093610,-0.6643458974271690,-0.21838915287411600,-1.6394787877721600
1.2109949994804200,0.2991487470119010,0.7006427589295360,0.6524295503254130,0.19711695796031200,-0.278553919040137,1.1930824717157800,2.175325318480670,1.9115040878562700,1.7109790189171300,1.637689304517690,1.5632591423323100,1.7135090581190700,1.459879718877110,1.7285449194029800,-0.7584056647761610,-0.9392535312223730,-0.743473957521656,2.3433182133943900,-1.7785759050130500,1.0527680212185500
0.8128596571854850,0.18960131852867000,0.4203856553577220,0.3858295070596370,-0.18660431580992,0.17902336040355400,-0.4127407211798110,-0.38634337212077800,-0.16431319738361000,0.13401039577352800,-0.3167825704855100,0.45438573909257400,-0.8242926343397800,-0.8812282621044320,-0.819972526192276,-0.3640433612638950,-0.38160234175807400,-0.32988941824065000,-0.32584980697517900,0.6642744732029550,0.026593318849776600
-0.4412666710435520,-0.7457651862127670,-0.5449443680563060,-0.37842395030225300,-0.4803387911321940,0.484019451290167,0.24167569923591400,0.25333959342978400,0.16208977884497500,-0.17235728278324700,0.6079462394663910,-0.5263248121327200,-1.0649009691739000,-0.2859561055200510,-1.0855000937028500,-0.5913975069687110,1.35899453851975,-0.7373608172678910,0.7636359567577660,-0.3236489920290890,-0.7971118440774180
0.07630927393986050,0.6783513840692400,0.41000576263284000,0.3947161751684960,-0.11712270308748600,0.02113951603997610,-0.5069917079135190,-0.5292197110380780,-0.6550020386992680,0.12197487215088900,-0.3344525477457370,0.44628109752358600,-0.08148385550521130,0.9164741024034720,-0.13405228736901600,0.15886575206571600,1.4996709253811200,0.09336509897236770,0.1435163953985160,-0.42146157534213600,-1.7980721644378100
-0.4679030359285090,-0.11877729631568900,-0.6261748596579190,-0.5690811291731810,1.0019040873873300,-0.9908526570336090,1.0542915750446600,-0.25483378359811100,0.8111274085233470,-1.2095143143349200,-1.4156746721652100,-0.8501211246807570,-0.6025332684438630,-0.8671247029796610,-0.5623642100017350,0.03365890076038750,-0.010728690449466400,0.09698224996506090,-0.6850283503634490,1.473040897823870,-0.8625690693877
-0.43120475860078300,-0.9037402980541580,-0.7130430482809830,-0.7639016959171530,1.5020874777064400,-1.400618556762150,1.0938953457630200,-0.9329451130566710,0.2436461851959050,-1.5648750958094000,-1.6497658178968700,-1.3573104649729100,-0.869664121351588,-0.1338841926542430,-0.890579930042565,-0.6655583966273180,-0.4906535288034960,-0.6855480427646700,0.8637502982455020,0.5574258043545260,-0.5946165740384200
-1.1040065096091000,0.356331888947068,0.09048769648236010,0.23070856588101900,1.017764190513110,-0.9376533631071780,0.922510325997532,0.5815004894958850,0.7157297495260430,-0.5444937054048760,0.3239156825465720,-1.493458635965790,0.3119335588328910,0.21088838300089800,0.24109325565555100,0.15526755012602800,0.03447960335879830,0.12544521647903400,-2.1863366892045100,1.653328483612290,-1.9273270410541300
2.1621401725585400,2.31873939329324,2.826835638108880,2.59931650892615,-0.7446717411697380,0.7204250487173180,-1.2976955219740600,1.5059349280082100,-1.6239513821511300,1.5382838488459300,1.4863629438468800,1.3931229515540800,1.2503615987351100,0.9378422599885540,1.2424205886175100,-0.628172465353198,-0.1537665387666700,-0.669893248209819,-0.7395052410535780,-0.5169900542892810,1.4160279610607300
-0.8104202909872870,-0.7591418503654930,-0.6913260011252170,-0.7741554099563090,0.7248804478665330,-0.7544322316592410,0.8381598256039300,0.03246408189653330,1.0340469988451600,-0.9209761057106610,-0.8183063981522980,-0.9499493591905080,-0.23985633971524600,-0.6480154206928950,-0.1847594300956890,-0.4750531713091540,-0.7100996725754360,-0.4474051782882210,0.7053002782031380,0.41853050661433800,-1.0868893730774100
-1.4465237646678800,-0.5525726393816850,0.1556388379496580,0.4973051308990860,-0.8343869611916690,0.7643852187622050,-0.7072951157461690,0.12420844424264200,0.14783298380163000,0.6483896735925510,0.48528535553984200,0.7965491435658090,1.347276211642550,1.8360825325009500,1.3262024859279300,-0.38747330172566800,-0.43467658816643000,-0.3898014207654250,0.5091453743572650,-1.0230272756027200,1.06671501078797
-0.2721788901806360,-1.6267325364974800,-1.0822328499290000,-1.0817668311310000,-0.06201724655646860,-0.02907670304541380,0.37273367396439800,0.15104942023114700,1.2455592463274300,-0.4956434627266020,-0.7972001205741680,-0.04764222902522650,2.034306229584840,1.422365026402690,2.1000359410726600,-0.6421445756017930,-0.785970057104188,-0.6497140002575780,1.4427472507377000,-0.6648563627652540,1.286961268884050
1.0611918527267500,1.4098348649644900,-0.03981458645223610,-0.34349942031174000,-2.0258180046985400,2.1839485877992900,-2.1156970577077200,-2.4688168782485000,-1.9922200835617400,1.5839405808572100,1.5365511430649200,1.423937121731100,0.2869826183095670,0.861427502534461,0.1983579003406680,1.5191312539769200,1.128458593817500,1.5361162908878100,-0.31769901154970500,1.1096166339888600,0.9340372695014220
1.097890130054480,-0.3460034283978780,-0.9302135198386430,-1.0407519749743800,-0.33185479704403800,0.2441374517755110,0.11775308701071200,-0.4230339400808310,0.5687353403734090,-0.5341535899793100,-0.5200380443535590,-0.47427657861423900,-0.9250525903784770,-1.010287880204510,-0.9388763785584580,-0.6038085196866220,-0.4990886656043450,-0.6236245513410830,1.334873013459350,-1.224318527564220,-0.3659794773254870
0.27829526973525700,0.17041959906164100,0.26422407372848800,0.3947679905075220,-0.6233891509164070,0.5881120071859620,-0.5404219229928810,-0.18549902556010000,-0.7190525925228490,0.6958917077325760,0.48452120945603000,0.8959725677128380,-0.9059514542185480,-0.4235378696140430,-0.8899534716562000,-0.28946306809242800,-0.331350757875981,-0.2534017651617740,-0.8527481782663320,0.020142787489520400,-0.0962217263381721
-0.5168340723654780,0.025821151372975900,0.04705360217082800,-0.0974102833719859,0.9785925099512820,-0.9858459845082150,0.8375505176468000,0.5092088134085870,0.3265748710999460,0.007745673467904090,0.15751630546000500,-0.14244986226723000,-0.9572090212637250,-0.809139107787753,-0.9337927215416630,2.6689379660232700,2.8947730562104000,2.6457527118032200,-0.09540960864971850,-0.40192439323437400,-0.17243549173606800
0.4495538972646460,0.025821151372975900,0.6985650168438090,0.9484685486219680,-0.6030908118477990,0.597471181875503,-0.5757847326102370,1.3607625632612200,-0.7580287254571490,0.795404789469575,0.7268324132278800,0.805626470152812,-0.7305934217335040,-1.3766165304944400,-0.7077840297180120,-0.6853221724904220,-0.6413767540406870,-0.6849082623465630,0.02091086408433290,-1.400968500427600,0.4022972427232110
0.02173952906496320,0.11998990525199400,0.14607395286771700,0.10067524860184300,-0.18440127207932900,0.04503342171082080,0.1701246433260340,0.3499551840528760,1.6342598836432900,-0.23028597621027000,-0.2577718381711450,0.06101874238619910,-0.8218301837006030,-0.8483349768840390,-0.8374064060814060,-0.6352980628578240,-0.3759095766338070,-0.6408275906640770,0.595867363364431,-0.03456933448255070,-0.5322395707344950
0.06347942486969170,0.36885785688576000,0.48611495790404300,0.582922118447707,-0.5914412596598440,0.6178269467081180,0.20556656489068000,0.5881432218106820,0.8810536269131270,0.2916069538811610,0.295882197736146,0.33007158841620800,-0.6998252240877350,-0.43145677832240900,-0.7379795571307230,1.5906145991066300,1.381107874837950,1.5948648946779900,0.2799451316788170,0.4497749355538430,0.5328361969517100
-0.36957199410436700,1.0562074375885400,0.33285704014119200,0.37908581263656900,0.34938916597296400,-0.5476054126100870,-1.0477179608324500,-1.2037938597664400,-1.6149967161875700,-0.1735784645474150,-0.4068842124495640,0.39001700762699400,-0.4757444111512750,-1.1624972020389600,-0.47015709834618400,-0.4547919560548650,0.25631968613144600,-0.5162450369886200,0.5447050396071720,0.7154628555987890,0.8382654055065770
-1.1626300143942100,-1.8531774255585800,-1.7073889900767600,-1.748766355343120,1.4320516268846200,-1.5520153184975800,2.3415114879326500,-0.23408454808414900,-0.21085022058498100,-0.5124190488978660,-0.5603502577345720,-0.10659572531395300,0.4133469930766800,0.32830550289524000,0.40324682261180500,1.3402973879107900,0.9996884621938740,1.3158150813224200,-1.0480431710589700,-0.3241599660505160,-1.2202998822780800
1.4174172950355700,0.19109503429021300,0.9410994012625070,0.8986198115942260,-0.9139232435669540,1.1274620569637400,0.05894770728996570,1.1740045925339400,0.4211395353112900,1.3266241207633300,1.4191223207853900,0.7013183983214810,-1.2020332988063000,-0.805149699062871,-1.2268618094868800,-0.7626061104086500,-0.9239716802352820,-0.7389845443697490,0.9888623281849760,-0.09157710307533330,-0.034537913735820100
0.6895778619406190,0.7125326472371510,0.7160018345483200,0.7643861467917690,-0.7445207089810280,0.849103025724581,0.0445602658761923,0.9282632855861110,0.48602891313768700,1.085573096212700,0.908737099640496,0.9250955865701770,0.2303931232188300,0.043071856301240100,0.30666176668253000,-0.8246624882589250,-0.8979436848194390,-0.8228662531820120,0.7531211005386280,0.7444758329362730,0.7199022230088110
0.08434937277205590,0.5762478165805650,0.42864323874297400,0.43625941060798500,-0.5288044816032120,0.515774394213357,-0.04508400810072930,0.22233922806286000,-0.17003811528656200,0.12764787647991300,0.12160844478085000,0.25203598482184500,-1.1735126684343300,-1.5227398455627100,-1.1811020670286900,-0.5125865641210300,-0.6704748163114040,-0.5012205855362280,0.7703788040148120,0.3265554876896590,0.05088309558434590
1.4722009082792800,1.068058292428250,1.1087252488156300,1.0527399452563100,-0.7113254566298350,0.7933505142607890,0.2232545259681070,1.3121930130509100,0.825346604754278,1.0567284726547500,1.0179498288458400,0.744701768442738,-1.1001830816056400,-0.4333896695055480,-1.1021666843357600,-0.862087484052647,-0.7323560764944660,-0.854954463778554,0.14405686635991200,0.5846053499524220,0.205825175927018
-0.7087086475177860,-0.4073731351147950,-0.4142753089527070,-0.339312874917322,0.03922305726022040,-0.21444314916460300,-1.36480595614436,-1.4713015661069300,-1.544992244906200,-0.3991759178428840,-0.43348050663844900,-0.04433327563759900,1.0007237038435500,0.6035311348511730,1.0313019787279300,-0.7899176930023950,-0.9943064225963440,-0.7819506430016780,-0.34457515839382900,-3.1507587557026700,0.985254709398432
1.1330642548658600,0.3629324294659090,0.677687355107607,0.6152376303445950,-0.6811646970003060,0.7599908768611380,0.11973012002369600,0.7797909932879140,0.7980773099148930,0.539010318339342,0.4235758570607820,0.6106676949576420,0.8208070421797410,1.261010129349000,0.9562131820568740,1.1068003355579600,1.3787172959022200,1.1981199608423200,0.7649095341016190,0.11104651290590500,-1.1585084790484100
-1.8565557821478200,-2.2324047804290800,-2.2485810121768300,-2.238470651011340,2.6071857180284200,-2.321901030514940,0.9048841879592170,-0.8668066135930860,-0.19569726213083000,-2.6062350915888200,-2.662772553517750,-2.9112796122733900,1.7808535974491100,1.2384314112208900,1.6513326863806500,-0.7431225040619620,-0.9719913142918660,-0.7473955377729430,-2.549172524035000,0.3846675969022200,-1.9669191768259300
-0.7843622086638560,0.03703392137407230,-0.46695771818368700,-0.5033762430092140,-0.0722684486257139,-0.07257632565533070,-1.6109715781890000,-1.5787029308346900,-1.3093313145784200,-0.5054963392439570,0.13438361966198300,-0.9527181583183220,1.2270044080179600,1.7292181367590000,1.206917185949860,1.5473605402429100,1.551120252317120,1.4956447184511300,-0.9000553143625910,0.28447658777193600,1.5795382162458400
-0.03043107884828790,0.24328725374146400,-0.3756886497450800,-0.747826272702241,-0.2336613122415460,0.2643869170631340,-0.4637610087414420,-0.6642934883783300,-0.39864426130800800,0.35978113163424800,0.27400653779284600,0.3926209060672450,0.9615233459953630,0.8906554482256710,1.0865332793437600,-0.7875219135751120,-0.9233851076296390,-0.7645583302854960,1.6131743128860200,-0.5053486407576850,0.4673157126313090
0.389364303582437,0.5571878467004860,0.22138379515356400,0.4179930419262000,0.16448058236550300,-0.14793650949594900,-0.062065882849116300,-0.08157380906335180,0.4577925243015560,-0.4796021994865190,-0.17880565070175800,-0.6310969569657790,0.6166773554661160,0.4916159694857820,0.6339479014862380,0.15078363477985000,-0.018509215050842800,0.14089101824710300,-0.8147941392965390,0.6147255062045260,0.7975956549818470
-1.0374283110965400,-2.2164583763308700,-1.1914663904345700,-0.8075036833269650,1.213284093726210,-1.1827777666548800,1.1346744195906700,1.2764941425973700,0.737331969821564,0.3634696500336490,0.12062726350298200,0.5285834347513200,-0.0874405232880463,0.038455878677408900,-0.17630432316457100,-0.8047218963516410,-0.8833411415251840,-0.8066055455548250,-0.5738276409898160,1.102509934310720,0.6629854679790960
-0.4733802340225260,0.5914939224337130,0.7269214357435790,0.3118998674822470,-0.7790713279269100,0.6929465618838000,-0.7359857421778180,-0.7754072739026870,-0.13952369715427900,-0.449189993034393,0.022856275887476300,-0.7449979329705120,1.6847025388646200,1.7745716028445300,1.6939216294616000,-0.6773337260145330,-0.7353715927194960,-0.6823745887822780,-0.9562135036594990,0.22114473256386300,1.0370803674566100
0.8188390716720520,0.5794867959270830,1.3868803874191400,2.0467643904918900,-0.6774798063817490,0.7161537041062490,-1.3174734500217000,-1.4039331826692600,-1.0898986889494500,0.47619181870754300,0.8900947897759820,0.07270907386942670,-1.2830841393434000,-1.2676999980315200,-1.2775969466281900,1.6269431079153700,1.4767227012613200,1.7673584252774600,2.089858988573730,-1.9911444014839400,-0.5037481751886000
-0.7893887235292910,0.2930310635546430,-0.9559913595032110,-0.7954476407765160,1.0662047909148500,-1.1115432054182300,-0.14366616063554900,0.16433314308707500,0.00652887962780059,0.7665885491430940,1.3105879647849800,0.19969548310268900,-0.12950704140142600,-0.2714625153047320,-0.08679550488131320,-0.7081000787002360,-0.593410847523696,-0.7018403252156910,-0.06284350393838130,0.19521244902248300,-1.6180675787882700
0.9192573678248570,0.49372160659401700,0.23815353029407600,-0.7014105088830120,0.7764436882266020,-0.7604029109770320,-0.09902698695867500,0.07408072528900190,0.1848413964991430,0.6093852736877060,0.7060721764034370,0.4415252574698890,-0.2834625977862930,-0.18804606347618200,-0.2623407042138530,-0.7713075680720000,-0.909824805482075,-0.7505179140887600,-0.24363444640526300,-0.6060408809648380,0.10399832378465000
-0.4453228077513810,0.6240846943802780,0.813215697820797,1.3568573555424300,1.0174260340868700,-0.9683233019920800,1.7531413811095800,1.909688323544020,1.0371812251859800,-0.1974380238232630,-0.42862744482602100,0.053872416109846800,-0.9303602317760640,-1.084821712986300,-0.9288563645675170,0.31677960741845100,0.6381829804125410,0.23209374923111600,-1.4538625938059800,1.2365746557801400,-1.3891852436548100
2.511537628945030,0.5040134293139850,1.910235871595950,1.2456403630145400,0.5919898743904400,-0.604720109323109,0.07058711849105740,0.3341505311425830,0.5336854848958240,0.6698215948727930,-0.036237903384377000,1.1752103243580900,-1.309149569375760,-1.1963308309220800,-1.3128516887261900,2.249833780099920,2.0789982064215200,2.1830961583327900,-0.514766361097154,-0.6312495864614280,-0.9153174634830690
0.0707121052172966,0.1883975325683020,-0.693614878450618,-0.8292045599177730,-0.8992610065523100,0.8919328735591870,-1.8881934124718700,-1.6754075493847300,-2.72677236421559,1.0430266862029800,0.7936029189514490,1.0757176685379500,-1.2198598962540600,-1.1531947734084900,-1.2123369801354800,-0.2783245187510100,-0.14985509793804900,-0.27212114603524300,0.7895940695215710,-1.4372420353286100,-1.0432788134858400
-0.8493838584282270,0.35478199987445000,-0.9591356848420570,-0.7692257482292890,0.09160332649590460,-0.15201789177386000,0.9376088849688660,0.8669816720520100,0.5064226204933770,-0.249455772281239,-0.7321916498089590,0.22559577719692200,1.1877961425909900,0.645963995857565,1.0866317580218500,-0.9387812651463310,-0.9156200157614590,-0.9298288524360110,-0.09298694094557180,0.6580968811251890,1.2713265092924700
-1.0843754635654300,-2.21302776875755,-1.120893755051580,-0.7285366046215220,-2.3319589371038500,2.3623016390228300,0.8141608396959880,-0.025113234313694700,0.8910549108020950,-2.912578715656620,-2.741985278377980,-2.7894354515270700,0.7921646163079670,1.3202929990383500,0.7560479440036750,0.621750836397273,0.9354139355350580,0.5844073513098270,0.22030175915690200,1.142761385989590,1.1292952384746100
0.7591157465879110,-0.36433996138732500,0.5339833954967710,0.6026951002545860,-0.0931295233091089,0.07389948438620480,-0.8721412685479450,-1.4434484444008800,-1.0359802931831300,0.34353724615345100,0.4188146305799930,0.10703389902078400,-0.886517542020598,-0.13120570183122900,-0.8894964377634160,-0.8741392187147460,-0.48060420267990200,-0.8852735860679400,1.3537147477922300,-0.24358126037960800,-0.31289674534454500
0.556684880831135,0.433118423485954,0.9181346145068080,0.8159674686681000,1.8837744761415900,-1.8161710949631800,-0.41334612728545800,0.1334683735714960,-0.859684178921712,2.0661609610559700,2.0520322022059600,1.5704461362241000,0.35959579984265000,1.2579033187240800,0.30156998077109600,0.5753646012693880,1.2612062747842800,0.6149931304593620,-0.7422115818054630,1.2922483431491900,0.9893951921202030
0.48523869291697900,1.0242414220633500,0.8468488212884510,0.802207961028518,0.65107762153362,-0.6877860530567560,-0.31217625890743900,-0.5193464494759910,-0.7772619728085100,0.8903306583013620,0.9012671473288230,0.7635833390657950,-0.7320420947565400,0.037597702064736000,-0.7300582831841090,2.8997428792296800,0.40133979571308500,2.8646372220179900,1.0674855897649100,-0.2151384320275070,0.27100262244036000
-1.7653162263789500,-1.9871398914441400,-2.5788295750381700,-2.6221895027723300,1.1379089573317700,-1.1216890132454000,2.729783969858120,1.676278314348200,0.8142542912763110,-0.05787763149499550,0.10537330473363900,-0.5861163064919220,0.6960104219204350,-0.9221996621829030,0.7043869558229110,-0.43002652435758600,-1.0308219963142600,-0.4158098709185060,-1.5374083582788400,1.5832278033225300,-1.664441918984250
1.4854853237151700,0.8848256205120770,0.8349678557520580,0.7110512229162910,1.0596829124622600,-1.0682062365082000,-0.8320045477885960,-0.9462587387218740,-1.2888522660216400,0.8958549826925810,0.8471186990160950,0.9870740777968030,1.2824404011157600,2.5508828096157800,1.548792003884970,-0.866934209633415,2.180107256023800,-0.8760575162974630,1.396328701651520,-1.2886982951270800,1.0070989619244000
0.42570020298851500,-0.5093323950006490,0.22111796970509100,0.3859828549311780,-0.5838110459045490,0.568801640729001,0.05307319298544570,0.09981097884464700,0.7534250115642980,-0.5232392739590460,-0.6260899668786790,0.060196715790206,-0.8707202349018240,-0.7639061152670200,-0.8660317630465520,-0.4095244406199870,-0.6834807052411700,-0.39258370845725000,0.014705413336980000,-1.2089020278424900,-0.14879430124714100
0.687669558673755,-0.11339151859503500,-0.2976841920507330,-0.28307320404347300,-0.8042467403402090,0.8084688375152190,1.1370609038618900,2.0817666411811700,1.5455658339451600,-1.3987044766890000,-1.4712055381267600,-1.0469281427915600,-0.7071658321052950,-0.7790535749919110,-0.7090861703689470,-0.7398596499314820,-1.020592395339330,-0.742077687343192,-0.8546002858435350,-0.7848807363500340,-0.6496499261490270
-0.2768539781673560,0.6394538097818370,0.24487990077787700,0.3309448243728520,-1.2443014635145100,1.303296330967900,0.4390174559140230,0.5634656439636930,1.8892799582444500,-1.1249317193639900,-1.3107321275761900,-0.1784357683909110,-0.653551058464365,-0.825116386691822,-0.6690246947660590,0.23109851984636200,-0.4978119750446390,0.20495795943824100,-0.23195222996034300,0.1253598034804860,0.2293967609218920
0.3899771090314370,1.185963751862830,0.549824682878628,0.5700162696105800,0.20904967521036000,-0.2630969710634680,-0.04130010509354490,0.1098239280867410,0.23450139975552700,0.5872673913682780,0.5384524514449330,0.7696054727664380,1.172038316282580,0.543344028410739,1.2358781639618700,0.0031416440117635800,0.8345418423168240,0.00982653227819966,0.019683799678742000,-0.35829951453009400,-1.644494812909470
0.0803769614034259,1.0409713182495000,0.6607136945516290,0.6284941770788020,0.22105665525215200,-0.2529005141954280,-0.674652932031928,-0.9442543767393540,-0.7220215030863760,0.3467243382963560,0.2458599547643760,0.7931231892087600,-0.8694981382019970,0.1520347660861360,-0.8603679968587440,0.4299037560283000,0.6541203077130970,0.5301834129376380,0.9371744893861010,-0.8756828856105010,-0.12804637672180300
-1.9915624881071100,-1.4573598455493000,-0.9867801931615220,-0.9985676013017110,-1.2567232828355400,1.241646957919350,-0.8765829081181900,-0.5273351370968360,-0.32278772093630900,-0.9733171931372480,-0.8238360259909870,-1.5172501670823700,1.9963595189739500,-0.22514130395502700,1.7485652946255300,-0.04107436295894360,-0.88636271336402,-0.1050043706130920,0.15118123161367300,0.23894074530849000,1.959359955796920
-0.8365157834949140,-0.7770107339790920,-0.9471769747068790,-0.9435295707433850,-1.1803382420278100,1.213736631514750,-0.3367313748463810,-0.2839707335610010,-0.23043855982808100,-1.0518052832237000,-0.8770547315012050,-1.7223324451161600,-0.7869495576847570,-0.8951398799815560,-0.815127053078547,-0.7776929941693290,-0.7316414885677630,-0.8077915174339850,-1.5741015173359900,1.7354064566066300,0.09207058815246860
1.0220269450608500,0.08311812130936370,1.5022911441925100,-0.20408293789497000,0.942593389566872,-0.928926820421565,-0.8877459392051770,-0.6030327236402180,0.38974240928562300,-1.8287017226816400,-1.4600677229797300,-1.7452870769222200,-0.49143873969929900,-0.4001394579099080,-0.48690662238549600,-0.8188712565360380,-0.934069692243845,-0.83156478038524,0.4034863413642340,-0.7526649670078780,1.032341604808150
-0.47207999401984200,0.410514690741666,1.354069595537770,3.0643943726936100,0.8848084928144500,-0.8804627513372440,1.933759650205910,0.8042960736446200,1.0587096692403000,0.8373438386651660,0.23697239587774700,1.1945563941797100,0.3226374412969460,0.2886204184017080,0.3627492120678250,-0.10990498558820600,0.145536462183855,-0.11537146232075300,0.15868165198892500,-0.3280792120863250,-0.7508871741115570
-1.493726316706810,0.14212564254425500,-1.0908199544300400,-0.33046142310702300,1.5531588315090900,-1.4289645592838600,0.11440306731945100,0.4573440488989210,0.3970430696240240,0.10515470520565600,0.00034841566524449600,0.20207726838570800,-0.2639056185037430,-0.40286135558920400,-0.2688096895763380,2.8883990833818300,2.9678933494930100,2.76160347249392,0.31650908870181700,-0.16301766304121200,1.6035853991655000
-1.3339906298160800,-3.265082841664010,-1.5925518116334300,-1.038180940294520,-0.42500204563507700,0.40904200896202300,0.49028954166799500,0.9378809578942670,0.8216470674649530,0.9150957757001670,0.5608537949519120,0.9810122818081600,0.10544312005427700,0.012838490023103800,0.13977513762085800,-0.6640896552865690,-0.4617471404701310,-0.7257614751431210,-3.1829764107218500,3.261506987481690,-0.5392474913183320
0.4843227650551450,0.4752326172573540,-0.17736157318570200,0.024497278836394100,-1.729370325114530,1.7509423276064800,-1.2646196904566900,-0.5328462548419570,-0.5410575148930330,-0.31759140861035500,0.0015331674558256900,-0.5209949906857270,-0.7378781827401430,-0.6878944236719230,-0.7569986555123900,0.4985253148216110,-0.09563901020214400,0.7199553418071370,0.4013004963966020,-0.4359897160014830,0.4436786196908000
-0.031130719845898600,0.33247248523745400,0.09973995252929970,-0.03231809234154590,-0.2809859819998830,0.2740274233116490,-1.4202140386508100,-1.706324052841370,-1.8461005722961800,-1.0908971582508100,-0.2202124401236050,-1.6343561350065500,-0.7480295563266970,-0.5647822497925900,-0.7652621366100950,0.7041906563344560,0.41643209195364600,0.7969507152341830,0.45299557392643100,-0.3491573621912770,0.6592907925719190
-0.12231247605634300,-0.05773854228360360,-0.032012535163803900,0.3554990157570040,-0.3952762531499520,0.36669782863134200,-0.5805634395721060,-1.0938132155522200,-1.0209780390146100,-0.20726587359283300,0.21047585344900600,-0.5403107031983930,-0.7520904100804660,-0.616326183356066,-0.7657706596486560,-0.7730155060679600,-0.7549691598025030,-0.8245045045061360,0.7169347151056060,-0.19487145739458000,0.4698312478951290
1.4661608761612600,0.5837303175924770,0.10586797521270000,-0.08649599948027800,-1.3446274358194000,1.4008461601190800,-0.27089576443714200,-0.5219408912192550,-0.9793106750272020,2.2849119532301200,2.7457218039145300,0.9672578531324850,1.888033314504140,2.307202033282270,1.8693548023970000,-0.8043012887537800,-0.743118710659654,-0.8321849460365400,0.06257805295121440,0.001415661696016680,-1.3099845150687600
0.5560194492812800,0.35341063793370600,-0.3167740892330550,-0.5234358753090780,0.2883482069323700,-0.306802301329047,-0.16088369843050000,-0.13241990247178700,-0.23081038395450700,-0.5537011431617060,-0.7240102726579090,-0.18889935692708100,-0.770537682918163,-0.8659803456304920,-0.7770363830264920,-0.05982833555894960,-0.6177182179039830,0.00938311766069416,0.6855886855049680,-0.12614193209353000,0.5659372494692850
0.722459677069829,0.15354645310584700,0.5396170807721180,-0.10078226302598800,-1.1291969168994400,1.110550893475160,-0.3881039860627940,-0.5846226517337810,-0.47774732477065800,0.040990439525099,0.21360373796986400,-0.12437340125415600,-0.7671710177071940,-0.9036699250625540,-0.7709625263184530,-0.2251077887947800,-0.23563326007976100,-0.18038277146020500,0.2364637751188440,-0.37188337630249100,0.4898723390816980
-1.658322795748450,0.35150716950677400,-1.5490811507230600,-0.9669694112358990,0.7629156134728730,-0.7686046497641220,1.3788657563224700,1.9622408235950000,0.5212466428281640,0.24356258701881200,-0.9709345838202560,1.5138154136658900,2.2702354149010200,1.8788983634674000,2.258389107125210,0.061568979747815700,0.5398386266963180,-0.014336839152344600,-0.38917699811884200,-0.1954942134437560,-1.9764247083800800
0.8605732195650600,0.4371632487187140,1.1570153661246800,-0.16166372459770700,0.8726344243226320,-0.9983455599699400,1.0557085412993900,1.0132377882677900,1.9076156515131300,-0.4289019930476770,-0.5942841497026610,-0.10449754717785900,-0.05529808278067450,-0.04590536416173740,-0.03852158613296290,-0.69756521769943,-0.22680533896481400,-0.7637858681915970,0.13761502778204800,-0.34562274961517000,-0.6879933638037470
0.6531817167392100,0.05109188559563870,0.22340483793515300,0.2684832329044590,0.015357643945987300,-0.043837843906383400,-1.1205430729662800,-0.5334724319248940,-0.911465195776861,0.5455135900090290,0.325092082336358,0.7074379612946940,-0.8351187213518840,-1.2458311486329600,-0.830965075806702,0.6821949766781820,0.8426472766876690,0.7580699996291250,1.053081261617470,-0.6419715371899050,0.05532886055589040
0.08460903066570010,0.2878344841972100,0.48431559756744900,0.46467269329515800,0.8209561298627190,-0.8335600793711750,-0.8026872607273560,0.32282926683457600,-0.6692130133355440,0.5267261931290000,0.4239682220403130,0.5399730325713620,0.20512244953189400,0.23721753463191200,0.16635242987630200,-0.8782402664878510,-1.1811274918753700,-0.8420350739525440,-0.8866016798666790,1.5971758337288300,-1.1585465903591600
-0.5753414085267670,1.2226642325213600,0.3864740627053380,0.3727088837370180,0.4633346472221460,-0.5135711414593410,-0.7320362676769130,0.6747366219712890,-1.1242323664820800,0.7113345508447710,0.570147872608124,0.7074379612946940,-0.7923257223997870,-0.7048018435637940,-0.8250041956239070,0.3920339591077030,0.7376570501977060,0.2872161436298970,-0.32681746469754800,0.5533663162002680,0.12661087696664800
-2.4333557219455600,-2.279912162173680,-2.5422492141671800,-2.5180201967071800,-1.2472300891344600,1.3122590668578800,1.5844210702756800,-2.5963827156533600,0.8222902795243180,-3.0592421877656700,-3.1378038949816600,-2.565305217184130,-0.052785566249360500,1.2715596221041800,-0.0880112445873026,2.8031882950429000,2.3482891251068500,2.8229604635018400,-1.2991292046521200,0.8453738196357310,0.9532161602928980
0.6024162983397890,0.29390480723827600,0.6343392843560190,0.6486003124114380,-0.9443583507823650,0.9831391525101250,0.7207847052830700,-0.0171805857176827,0.35773506978987200,-0.2328805060550510,0.23728223521709200,-0.7160139328536250,-0.4482927639795570,-0.4936250771680550,-0.429130862746085,-0.8992214554513540,-0.9686290037526790,-0.8927256985927620,1.7091450112785300,-1.6457976320040600,-0.5159818888495110
-0.3722797349290850,0.05109188559563870,0.04729007518335360,0.02631186773469050,-0.38450379590797300,0.33380258383007200,-1.244354152753720,-0.37657649843727000,-1.0362163891396300,0.6325010434452610,0.5209321652105940,0.6190536933573820,-0.5534718459437440,-0.6578047305340150,-0.5760366107913810,-0.08459542985994520,-0.20019747665019200,-0.048663718954339300,0.029594894438197900,0.13288780100583600,0.4438636172451910
0.4501200431415280,0.8887964652627360,0.33429191077887900,0.3113996773649240,-0.05825948110246240,-0.012617382659751200,-0.489554967253318,0.2489449797202820,-0.7235630983135820,0.4928944666442900,0.5215684498437610,0.3472303787577190,-0.748294646090749,-0.9403964882553970,-0.7661006168758120,-0.35014715979494300,-0.3265535753135810,-0.32368333153744900,-0.15109182767373100,-0.1398014900655540,0.2310624346033800
0.6125693820196730,1.1741016481928300,0.5691115944479450,0.47080361393236700,0.8883176159453760,-0.9303267693844950,-0.035321437568793700,1.3544082920562000,-0.3989989872020770,0.6914728042141380,0.6478093167910840,0.5680875826490000,2.986936420121840,2.466333434922130,2.91712453431247,0.5276091974811980,1.0407246200097500,0.4739567556354130,-0.017704057800387900,-0.654570398599573,-2.11028229971897
0.1962929511444250,-0.16743974388273500,0.1777454549995010,0.2500904709928310,-0.22145733637317700,0.13631980319519700,-1.0786075586719400,-0.8795593506414040,-0.6192733552151220,0.20322729365762400,0.1336210532597680,0.28319347519558600,-0.06126938949871330,-0.2526366166413230,-0.0682735243469087,-0.4579655888748240,-0.3126580970784300,-0.45348558629673000,1.9606696382461600,-1.2027776820933800,0.8256498795172190
1.89185792568507,0.4335222371827920,1.560572481050670,1.6111548524533000,2.4457030576911700,-2.3276660930314100,1.1156232331436500,1.1894131150966200,1.843654507138040,-0.48436041375012700,0.4462110797053160,-1.46199406989392,0.5689388177333960,0.6681767789580190,0.6915639917987890,-0.8905869987119990,-0.8638645984517390,-0.8815204903360950,-0.5865840260833230,-0.975171937063576,-1.0942637671552500
-0.5753414085267670,-1.6243172737385600,-1.0746261912355200,-1.0465992437769400,-0.6517854384354510,0.6837463835827760,1.3318302273204800,0.3135273913451100,1.0171958349151300,-0.24636845279304700,-0.5316563065579190,0.26346117351655800,-0.506982582528026,0.004229833120633830,-0.5854976450362350,-0.12570138899545200,-0.2410073990137600,-0.17786224650690900,-0.9358620642592400,0.7716294636955220,0.6946353466047700
-0.5347290738072300,-0.3313384659915150,-0.8006698936216070,-0.8596061643420580,-1.1260746029314800,1.2123123198365500,0.7504454815954340,0.29931191535054000,1.442086714097540,0.21918161841978100,-0.15717227547280300,0.7074379612946940,0.2375435506546900,-0.35242129894133500,0.3939788198267730,-0.7185681401336120,-0.875280429866221,-0.7222272162194460,-0.5487004805473490,1.359657442749860,1.5487073702968900
-0.9211979567101090,0.12012169156518800,-1.4222884375551400,-1.56895923573923,-0.6733939176269240,0.6621293156516960,-1.5098806965174600,-0.04967785669037340,-0.43143879870573300,-0.3045605238131520,-0.6603102311080810,0.7351981427029550,-0.6076830629144980,-0.6652019734439660,-0.5703138973158660,-1.0809265293578800,-1.0731529757860600,-1.1065564066320200,2.0671557722405700,-1.2547093229389000,0.4010150303620900
-0.47986357440792700,0.379721176653935,0.7384259663010050,0.9337220817570080,0.23088384807075000,-0.2836663860597350,1.3495323895525700,-0.10705309715131800,-0.02028583819948060,0.8667945732555750,0.44963251386500600,1.1701572914618700,-0.5056644834216350,-0.3233292646245600,-0.5131617896740550,0.7080583244082290,0.6053164381852500,0.7801950184856970,-0.4044139358361210,-0.10079855359784700,0.0931903592404679
2.210174565338710,0.39680009014661600,1.5241402949759700,1.737335348842960,1.1289483501618700,-1.1579068370132700,1.3243213983088000,0.4792407906461260,1.9216051058482300,0.047600304556935800,0.5849112718836030,-1.020198257407560,0.4612266491295080,0.4819230124000740,0.3380738797635580,1.8006449695927700,1.9811399521649500,1.7231206953438300,-1.1679687790140400,0.03503116604248190,-1.2051529373175400
-0.3117361906737620,0.27724769569785100,0.018187831682289100,-0.053574217805728100,-0.3299340671378850,0.3026422333599990,0.1320353871701950,1.008220911422740,0.4385546655338830,0.3160061360389230,0.6802922748863160,-0.5788957995488700,0.4732410981905390,0.5983723274082840,0.40641959054832600,-1.0919086645877100,-1.073632402467350,-1.1235964501314400,-0.18369182336181200,1.940443376606010,-0.8206781323507610
0.31874149832935600,0.2294267379183450,0.30191800592602600,0.13010881467106000,0.08708617908789970,-0.1421953977711520,0.04053957134200420,1.0597876841821500,0.47546062107877100,0.5560308385440570,0.13607675701627000,1.1087657220909400,2.9823627151765800,2.9258825438820500,3.046885201320880,-0.7023576082635120,-0.8046987633769320,-0.6762409272768350,-0.501020565305577,-1.1727108328680400,-1.4669883598768700
-1.089325340444270,0.24992143410956100,-0.13458995444895400,-0.1683761131037210,-0.3712740335127310,0.35894801498779600,-0.17131416269631100,0.5540294208348330,-0.6545168762629520,0.48236751045382300,-0.11484576035664700,1.4991360273300500,-0.7655254054751840,-0.8320021290234050,-0.7233347281019570,-0.46591595727709700,-0.4492593189439460,-0.44992430300836400,0.07823534100318840,-0.6564477025989700,0.9381388965930970
-0.269704344740221,-3.29566100697096,-1.8151456018926200,-1.2475139289048500,-0.425674605787311,0.4201799465491520,-1.6932125698316000,-1.1264162237800200,-0.572131568847451,-1.3220809887082400,-1.567624641657020,0.08112423479480640,-0.7520348860288460,-0.8189688007103450,-0.7074771179922690,-0.59619734372359,-0.6448139426100630,-0.5778679161366770,1.712079621552730,-0.007408124225381900,0.7065370427763770
0.045534499761337900,0.22601095521980800,0.08366402573853600,0.08418805655186300,-1.1451024467748500,1.2332824343958600,0.5936418399448200,-0.024794525629968300,-1.0328659595848800,1.511392891756830,1.5725612233300400,0.381193827021618,-0.2382731901132110,-0.31760419722467700,-0.24674601620735600,0.5732055968220030,0.649681450180194,0.5693723362874380,-0.4335297577464930,0.795711582201775,-0.2284300681780750
0.6760121887644560,0.39680009014661600,1.3495371108259800,1.4158900420085800,2.7626363726484300,-2.6999085904905400,-0.06594068982711090,-2.3800220397270100,-1.6653855137754100,-2.0887403045905300,-1.7644888783713100,-1.8355197641901400,-0.6633664751398080,-0.7314846368479990,-0.6281206299806310,1.0966774797299400,0.9665732211655020,1.2008651958597200,0.15150374513359200,0.2176145075241330,1.301882675623650
-1.551675645713230,0.12012169156518800,-1.2476852534051500,-1.385276203262440,-0.4374221743939420,0.4241082511560470,-1.3573998078024800,-0.9376235116456830,-0.5081650290639350,-1.0646599037059900,-0.9880243688650030,-0.5995214256221070,-0.3453432580139820,-0.3809446963395160,-0.30875596130177700,-1.047450315133340,-1.0083986482521000,-1.0679319685039100,0.7505845684043010,-1.476670299737470,1.7180493372694300
0.06655042272810850,0.48902622300709200,0.5638227821510130,0.29083146808825000,-0.021773027083250700,0.026766192490160800,0.9121457310862930,0.35290924205951300,0.41275818708277800,0.008222171861414840,0.603858166661962,-1.1467071526239400,-0.39055964829576800,-0.24749041519790100,-0.413866546790469,1.3717066891561300,1.2633715533153700,1.304868800897470,-0.8576329114416410,0.30584061593193300,-0.24911446121515000
1.3064898777675700,0.4104632209407600,0.04001322970103810,-0.1683761131037210,-0.8049804776520440,0.8556208227440140,0.4455316092703060,1.1713992054790000,1.6364110048961800,0.9916272943503650,1.0679616727148800,0.20526715399034400,0.35161994690630100,0.3108482297219560,0.32039801573160900,-0.5655366413659220,-0.4121265635748150,-0.5763040751849100,-1.2113012756286500,1.3741035876603100,-1.1884493829267200
-0.9779823203181780,-1.898219441214340,-1.9291669871730000,-1.9845023451854300,-0.07283824394836010,0.029509139672618100,-2.3594305548404700,-2.1341332943746300,-2.490390016030190,1.9338090797861800,0.4736402428536430,1.5307901203296100,-0.8544470874174020,-0.24715149364842600,-0.844030293526797,2.5174730289194700,2.418591596684240,2.572320203306190,1.8212171385715100,-2.3772334730024300,0.41137426408635100
0.34702598462903200,1.391919752164420,1.3779764194092900,1.372244333226160,-2.052203169063900,2.1044569988670000,0.17021748099835000,-0.056180321341763500,0.9495983494576380,-0.7489112954758600,0.29041596677884700,-1.220281216144090,0.35903897545114500,-0.4705598548103700,0.4062438888364790,-0.32515772446720300,0.0011637123262385900,-0.3413825978380880,-1.141715001299430,-0.667337647232096,-0.7827358094468890
0.5697164560487310,0.37285009049843000,1.268195725414850,1.230694774497960,-0.8937039094669300,0.8966548131570650,0.4776073133617970,0.35225655280349000,0.8506212876386400,0.8056173139332060,1.9165067042316200,-1.4229921579991900,-0.45879853114693500,-0.7917180594035500,-0.48649561964394100,-0.3434773049587310,-0.8658648753734480,-0.36294045074325000,-0.6922524457900910,0.9382209801103940,1.3467363483392900
1.460478341727530,0.4116717918952290,0.6506793216961700,0.6307942636974940,-0.9082641669882680,0.8085136823628660,0.4880691281623860,0.49655635620259000,0.5653840488588530,0.8365900411707720,0.7881155019680870,-0.07287551286417770,0.0752504191395849,0.4047945713033520,0.08424835467900780,0.5001223961348960,0.7452820870456190,0.44211470241592800,-0.03442097330597900,0.5269523365793150,1.5611866235380700
0.2022771782062280,-1.8691031651667400,-1.188147302710580,-1.0812813513959700,0.8320840458825380,-0.8059386649917270,-1.207227129256850,-1.3007705276199300,-0.7610439166364210,-0.5223972468774940,-1.2830375649591200,1.070557005654130,-0.3534553261421470,0.3480972199306690,-0.28263255570656100,-0.5717123145341940,-0.4585699794870620,-0.5433424309195780,0.29358847189262600,0.17146125372530700,-0.10478695423401500
-0.44352518891090000,0.15933073281603200,-0.419682444749549,-0.46789993024043700,0.9790774463523920,-0.9706396070706450,0.6349153113495550,0.8425092806888570,0.018092875571464000,-0.26049749947740100,-0.8164118159743610,0.7429909279214160,-0.8629578569311200,-1.039174027953980,-0.8557784571551290,-0.39240156701997800,-0.8085628102840630,-0.3525483134580210,0.5823127231968950,-0.47435427071834400,0.45963200022800900
-0.4101216181979450,-0.054188624866365300,-0.11778553626485900,-0.06347261958843770,0.598284997803069,-0.5777531334380550,0.8170432353454790,0.9093297309423220,0.19986875147204800,0.7400431256611230,0.3550191422152810,0.35854395793366200,-0.017697180846899800,0.10452387127103900,-0.01120140543951410,1.6001732426354200,1.4161735455191000,1.5571303355447300,-0.6135324933938060,0.780033366233299,-0.26403955473157600
-0.9111751788922680,0.6737182763236260,-0.04917260251833860,-0.08369398512103770,0.7504454257240330,-0.760185682386141,0.4626866717248670,0.46133857219410500,0.5080685312730000,-1.7161085113054400,-1.043559664973680,-0.66819508509686,0.60398669293284,1.3853080383650100,0.5243908367600060,-0.19222225740688900,-0.03817257805739550,-0.22965735133469600,-0.4817386962944530,0.7022441986693040,-0.7532833589218530
2.3623747509773100,0.30491211305403100,1.103524684423210,1.0756643054146900,-0.890201680456211,0.9136743754034600,0.3986531525841520,0.3610433269737980,0.7048035785651990,-0.07003217850857060,1.2311927985855700,-1.5773824683655800,-0.8679932352511800,-1.5320117978036800,-0.8586268205317840,-0.816383342245042,-1.2209293566524100,-0.7871635842227020,0.6170462640014430,-0.1410880703502820,0.5486837184575290
-0.8889061317502980,-0.8791497795483560,-1.1469795424626700,-1.2026095445915700,1.4741204144697300,-1.490148258654160,-1.3806637814271600,-1.4900186930298900,-1.3981506551730700,0.5348905258948760,-0.4393437929890660,1.159536669947620,-0.8368608415392750,-0.4700483495064690,-0.8379303975475550,-0.3517036139990660,-0.4795593607365270,-0.3358059197863030,1.7265595883710200,-1.1861813881698500,0.6434392681232470
-0.6662156603305990,0.2757958370064310,-0.008004842270426350,0.06459602878469530,0.641674665444669,-0.5951430449980200,0.8134366536402790,0.9604576991928830,0.14381474700694300,-0.04155338402981300,-0.002651543821618030,-0.06571470422876560,0.36767720673848600,0.021614730422259800,0.28600132900758900,-0.8038170718362440,-0.3247478347422740,-0.809215328391151,-0.6222226573835240,0.3784664980565560,-0.9449622985493870
-0.6439466131886290,1.1104624170376200,0.4585631072059130,0.5094660705018940,-0.4584758257527990,0.4469993820757270,0.6846925183576220,0.5976113173681670,0.7093324179958990,-1.4914499707716100,-1.4698859739152000,0.1650224629122010,2.8462567650129000,2.2863251518341400,2.8758111402682000,-0.8208934712224350,-0.3848041462420200,-0.8095092645730610,-1.454841918566210,1.3488162160988400,-2.1212442468887700
3.145877563982560,-3.093392971954630,0.0033141847914524300,-0.953101677812618,-0.5676734461147670,0.5316403101691870,-0.47908502603844800,-0.6539318264412550,-0.08248787902786670,0.6774802671856710,0.4785390932858410,0.532250857117275,3.310551008677840,3.297006084485230,3.315935825688370,-0.3182894955978750,-0.1661190394771440,-0.3067232331313870,2.534940451316410,-3.183833356031850,-3.1501070102555400
-0.5016019155278870,0.9488674453175830,0.5600972297559680,0.35086710117278000,-0.2632336347921310,0.16477805150395900,-0.46138486168206300,0.07518869590111940,-0.4649997144684870,0.4527922994520370,0.21684235138820700,0.532250857117275,-0.35578042322842400,-0.4181773400863440,-0.32001693555117100,-0.5981577545768810,-0.5857108668106420,-0.6176007267665960,-0.724261074441002,0.8178347937585070,0.44166140351015900
