,ECG_Rate_Mean,HRV_RMSSD,HRV_MeanNN,HRV_SDNN,HRV_SDSD,HRV_CVNN,HRV_CVSD,HRV_MedianNN,HRV_MadNN,HRV_MCVNN,HRV_IQRNN,HRV_pNN50,HRV_pNN20,HRV_TINN,HRV_HTI,HRV_LF,HRV_HF,HRV_VHF,HRV_LFHF,HRV_LFn,HRV_HFn,HRV_LnHF,HRV_SD1,HRV_SD2,HRV_SD1SD2,HRV_S,HRV_CSI,HRV_CVI,HRV_CSI_Modified,HRV_PIP,HRV_IALS,HRV_PSS,HRV_PAS,HRV_GI,HRV_SI,HRV_AI,HRV_PI,HRV_C1d,HRV_C1a,HRV_SD1d,HRV_SD1a,HRV_C2d,HRV_C2a,HRV_SD2d,HRV_SD2a,HRV_Cd,HRV_Ca,HRV_SDNNd,HRV_SDNNa,HRV_ApEn,HRV_SampEn,max GSR,min GSR,mean GSR,number of peaks,number of peaks SCIPY,number of valleys,mean time between peaks,median time between peaks,mean height of peaks,median height of peaks,variance height of peaks,ratio of peaks,ratio of valleys,labels
0,0.5156881296243656,0.127364090367118,0.3137332984934945,0.2649309651027024,0.12719830799284457,0.3110859707865593,0.15041661598919415,0.31221889055472263,0.08379120879120881,0.12255744650013997,0.07270194986072423,0.3361995572848105,0.47279239569639675,0.22511282187417045,0.8033252656758376,0.2981993938676439,0.03605439016820294,0.03695890873701023,0.14625525270333203,0.8125555930982499,0.17062251142671855,0.49693608770764086,0.12719830795912646,0.323439199611806,0.24124331260046866,0.05506585167088296,0.1947750250420955,0.5371015096626945,0.30394165667624273,0.6940068759991339,0.6514828399144873,0.8170846885725216,0.3241525428275953,0.7256821220638754,0.7340782594013862,0.7258694324067818,0.30144459045298255,0.4504593437149166,0.5495406562850834,0.10999611337624071,0.15514816899617498,0.6540840191184376,0.3459159808815624,0.3230525411913597,0.27672884518854635,0.6350428076904183,0.3649571923095815,0.2808255032137148,0.24732502749320098,0.5331662932788852,0.12410664014141148,0.06775087679045164,0.05940804386636729,0.0628654149144728,0.26800216567406604,0.23680981595092027,0.2583668005354753,0.4923348987550798,0.37806709911589065,0.014277298261529667,0.00811550990414473,0.0006109038530105591,0.10671491001362716,0.10453648915187376,0
1,0.4670980808585079,0.04395283065354649,0.35590698412250166,0.10228525645095117,0.04403549743693998,0.11836496633585991,0.050788638051368316,0.3437031484257872,0.0673076923076923,0.09507391101849122,0.06852367688022284,0.29953203464160844,0.5204380542626458,0.07512609503583753,0.5110105581079993,0.2772523471003846,0.020028532278061114,0.003975214368531252,0.2411068880582765,0.8967901848840908,0.1015148146380006,0.4115993997325498,0.04403549745387555,0.12680064159943522,0.2190175844790354,0.011469314758991073,0.21521858187622753,0.3043194369432105,0.14476031861534416,0.6523397916884898,0.6411012605009886,0.8335403471805312,0.1287878797054924,0.5987125236552986,0.6415604219336779,0.5536228664322684,0.29973846009458693,0.32155044919324594,0.6784495508067541,0.03252764972891914,0.06232415961324204,0.6453069966805369,0.3546930033194632,0.12967578129563317,0.10573443589281414,0.6161896602581222,0.3838103397418779,0.10994569360749928,0.09478186169473501,0.5050269188871384,0.22154509867105682,0.17219949499102047,0.08901729397847823,0.13821537849573873,0.41959935029778017,0.445398773006135,0.48594377510040165,0.26521601648962956,0.17620875280499318,0.12120969491151279,0.07422418925885016,0.02675428242411959,0.32490641103958146,0.37080867850098614,0
2,0.4411278955393594,0.122873038547609,0.3783740983641334,0.21792335426727022,0.12303566194983093,0.2414916529581192,0.1365186853223394,0.38155922038980516,0.12362637362637367,0.16266409278242377,0.1158774373259053,0.37986090194878447,0.5438569626702211,0.18051499867268386,0.39819004522724755,0.48372871297816866,0.041581280619632406,0.012451212312971685,0.2075632311132615,0.8763478064318754,0.12031857712259059,0.5179851039927695,0.12303566188151951,0.25480490312692833,0.2987460619018851,0.04392632934342418,0.15292061087247016,0.5020481938742369,0.20070553566987198,0.5088211806666759,0.48790227938017117,0.6321266538981685,0.0965909081853693,0.3910598512457395,0.48090529363146106,0.30171503750513295,0.2206995176499782,0.37595172561893797,0.624048274381062,0.09897103588096372,0.15899654739834992,0.8989090431671691,0.10109095683283109,0.2982041259902625,0.1656408940815314,0.8311449771613091,0.16885502283869064,0.2586230459844325,0.16245424318448184,0.5381661664527038,0.24339812991939141,0.0918032242688595,0.02174506580289376,0.08211221535349157,0.4152680021656741,0.5042944785276074,0.5502008032128515,0.16159368522140372,0.1249555492881755,0.09075292215818907,0.11209147408595055,0.005827368384971576,0.429851354103034,0.5562130177514792,0
3,0.36142799486623955,0.08976386364224354,0.46146652941762933,0.18064681518306108,0.08987260709870716,0.18522859101589553,0.09214372569832183,0.4355322338830584,0.09340659340659342,0.1147899961373941,0.08133704735376046,0.4405835593431275,0.731747773361557,0.18529333687284313,0.6378414613952302,0.2782333236814176,0.028420599952403723,0.007536180559934165,0.17248428541672184,0.8500138320324825,0.14667935397219123,0.46209125157378805,0.08987260709731643,0.22083604212742686,0.25029637955814726,0.030208278104959328,0.1872286173216016,0.44479846410768387,0.20719219172197859,0.7460415186408386,0.741288231089318,0.9289150561547364,0.0,0.6930083229284985,0.7050112215700499,0.685628050555072,0.23566302651353155,0.5369842436634226,0.46301575633657754,0.08468333874585636,0.10208681775587866,1.0,0.0,0.27501442768334167,0.1191184449407722,0.9522976649284998,0.04770233507150007,0.23710783130476676,0.11348779773253967,0.7198961361822647,0.2568623513474343,0.1904555864102597,0.0551754603783957,0.13221430265721745,0.5192203573362209,0.5092024539877301,0.5555555555555556,0.38761950492073344,0.30531661169084373,0.18529283275735428,0.13097108377496908,0.05028049011428408,0.3546669172814561,0.3767258382642998,1
4,0.41092570396269434,0.02966232734198166,0.40972726860674313,0.09327414143184563,0.02963050752425789,0.1015676043942017,0.03207961000525076,0.3883058470764619,0.0741758241758242,0.0975204442777822,0.06908077994428971,0.26441734662428457,0.4847229434084125,0.08229360233607647,0.5993166497774126,0.039841462065436414,0.010257451206014078,0.0007074561731635787,0.06698838675262299,0.6658258812291307,0.33361799696405825,0.31872975641036727,0.02963050753263504,0.11786332634745954,0.17126204363841052,0.008337277952932806,0.27121983007385475,0.26176010844605213,0.17002234382387574,0.7950843276092475,0.7609412975055837,0.8939600638773819,0.28813559268008465,0.6956411254189576,0.7094343987885656,0.685468629737124,0.36254319318518036,0.5422437160599151,0.45775628394008494,0.03019269767684388,0.0336235673819544,0.6006021097314916,0.39939789026850836,0.1160916473409139,0.10271927261505495,0.5961611727157017,0.40383882728429826,0.09853132548147894,0.08778397646991445,0.8431188883733265,0.35136639124193336,0.055399855456351815,0.04540865056683652,0.05056718088283965,0.17920952896589068,0.3717791411042945,0.4056224899598394,0.3842817602991868,0.23816538117251781,0.012074154928851052,0.004326311407659358,0.0005736613828711351,0.07147220525351253,0.16469428007889544,0
5,0.4953787037798991,0.04639745422826837,0.33039486669280593,0.16161749307912437,0.04632860843416266,0.18918413025918612,0.05525019195065455,0.32533733133433274,0.1401098901098901,0.19681856913931117,0.12367688022284123,0.3235594370445381,0.5763618318956395,0.1513140430050438,0.6459998074038371,0.126903837396929,0.010531027364875666,0.00666227371938345,0.20138959721454466,0.8690043201124712,0.12389210898474035,0.3222639480331847,0.04632860843664182,0.20427205496496986,0.1413776448324388,0.017294327844294043,0.31837339466401005,0.36218845224997076,0.3075627704266035,0.3422258473250228,0.32857005606796474,0.6314307091505749,0.16666666772916663,0.5767972726461736,0.6258597636286605,0.5247644734059582,0.514625585011161,0.4832300506873066,0.5167699493126935,0.04262586167250963,0.056089931989147336,0.7354754779713061,0.2645245220286938,0.21885845705949092,0.15903618792723326,0.7196671279708586,0.2803328720291412,0.18422322103991093,0.13671681761270474,0.8037418420187337,0.26798665985306147,0.0784960034050996,0.06380157729692466,0.07004784851424621,0.12723335138061723,0.3901840490797546,0.42570281124497994,0.2482696429198824,0.21336954789027723,0.04137889211334027,0.018098942139035682,0.0038212913157971546,0.05377253575176605,0.1816568047337278,1
6,0.5489217057959102,0.04188063319473587,0.2848143951716101,0.17499157820840483,0.04181014287747101,0.2142424036926303,0.053124934925888136,0.28185907046476755,0.20879120879120883,0.30450377081093866,0.1988857938718663,0.33829092605811023,0.5426300784256214,0.10034510220334486,0.6358851232414904,0.05971422973686651,0.005267664859121974,0.0012146488348289937,0.17602811775291327,0.8540515326638408,0.1437953897260645,0.23377270458104205,0.04181014288276647,0.22267577991418352,0.11486224335813751,0.017350242649634952,0.37211784556126803,0.362654686022011,0.38084360728408606,0.531288538071854,0.5056549989300382,0.7126006587800109,0.07456140292160088,0.5738999129511688,0.6198380915279758,0.5273503452111572,0.3803102790161983,0.426243456205162,0.5737565437948379,0.036030812015797664,0.05393571746706482,0.5941307316536157,0.40586926834638415,0.21432910390516885,0.19866397783438824,0.5842656427624794,0.41573435723752056,0.17957744283823876,0.1689085325978547,0.6784007021603253,0.21674119308554207,0.14298750417876105,0.05954989303016091,0.11616477756920933,0.41093665403356794,0.3570552147239264,0.3895582329317269,0.49399791537353455,0.30333165749040475,0.1012302406959166,0.09261929796475263,0.012547715309890507,0.17453753739642563,0.1670611439842209,1
7,0.6430671131986878,0.018514063176617662,0.21199070214306148,0.1861265814547896,0.018533670095928243,0.24561285281113537,0.02897265337654374,0.17991004497751117,0.25824175824175827,0.4195258436215051,0.215041782729805,0.17247746007036965,0.3246454792277327,0.10379612423679321,0.6558424274214023,0.02540735308984065,0.00022994705661958303,0.0003709612027833035,0.3362300745199467,0.9322089735592792,0.06616799908284891,0.022361507255489244,0.018533670108524705,0.23927192458839314,0.04318045031550109,0.011759288676820228,0.6302000903677442,0.3077469284853498,0.6583090662669125,0.360312326945732,0.3631970000269966,0.648079471987774,0.16346153872716346,0.6328812759041575,0.6670111880791703,0.5967243674696974,0.4572258816739865,0.4799293104957256,0.5200706895042744,0.018212224276568937,0.023522098003834098,0.6727125240841626,0.3272874759158375,0.24395549232606173,0.19971194174005727,0.6640077807990186,0.33599221920098127,0.20206582883156565,0.1669110955440273,0.4931354480240781,0.10793686514363432,0.09000447615525695,0.05893146341765111,0.08002387504231327,0.39577693557119653,0.6969325153374233,0.8192771084337349,0.37373370653612376,0.2656083309830658,0.04237973128192034,0.020548542747292103,0.0050851414683915535,0.2575536863869179,0.5266272189349113,1
8,0.46027649941161264,0.15280340589124197,0.3648584944320893,0.2715745144557027,0.15266304632983185,0.3037932907278421,0.17165283404534604,0.3654422788605697,0.1785714285714286,0.23814773661872013,0.1646239554317549,0.33696713416261875,0.5095221485704454,0.2758162994425272,0.5718194253626161,0.08655116772773129,0.028657229387659144,0.014234145614768145,0.05180738050107696,0.5928498653173954,0.3913514963514132,0.4632993144136921,0.15266304630574548,0.322112547708164,0.2952150278404988,0.06412005785861288,0.1551242827034272,0.5608764486918769,0.2534715310490767,0.5335058035750023,0.5007047214489263,0.6993388595170713,0.17708333273567706,0.8276110324617885,0.8057307627507859,0.8551401138694277,0.48907956314517254,0.6105689116421531,0.389431088357847,0.14975214983704246,0.16193189663485338,0.9742854428158254,0.02571455718417459,0.38727996296946815,0.19220892767926442,0.9310914595688624,0.06890854043113753,0.34081035216190664,0.18310123557277166,0.6206938792747845,0.14076315603387318,0.1565841731868703,0.0,0.10702730409723434,0.40552246886843535,0.5754601226993865,0.5836680053547524,0.3719809026354519,0.32595860259224285,0.1916721273734231,0.2157102082908189,0.03596874037245474,0.1995990163369516,0.2879684418145957,0
9,0.3971753693072857,0.05037445042596746,0.4237106323448573,0.08775228672660933,0.050339689676436775,0.09406466742471845,0.053532428319068966,0.3995502248875563,0.05219780219780222,0.06779255186366534,0.045682451253481894,0.238215058198594,0.5294865123188438,0.11335280063711178,0.7466063348010892,0.2827209336931281,0.038902907214243165,0.006743947255883518,0.128363141103335,0.8016854771159537,0.1958379380660664,0.5081450191463982,0.050339689685055374,0.10409210483356217,0.28694557712308677,0.01095953482152116,0.1604496191837647,0.29811175672079826,0.09288889236668291,0.7448051958324221,0.7329971775789631,0.8850040436320599,0.07456140292160088,0.7463994962359384,0.7509224190433816,0.7449660929422581,0.4027422060414825,0.3901150133808766,0.6098849866191234,0.04121680908973237,0.06650399649182587,0.875843260253758,0.12415673974624197,0.12926984157529942,0.060114750769841824,0.8163029958026102,0.1836970041973897,0.1113019083239192,0.06031224313257962,0.9063801126582929,0.33612673907167295,0.04483584155583756,0.04262117158277977,0.04482208316588311,0.24526258798050896,0.07779141104294479,0.12744310575635878,0.5755325752163678,0.4580538558693333,0.0028355418901474506,0.0014754392603026961,3.3594558404788816e-05,0.11423335369578498,0.059566074950690336,0
10,0.3937051126594029,0.06843907666546047,0.4271417743461562,0.13109337499222723,0.06867107721029349,0.13928538292234047,0.07255237051492414,0.41041979010494745,0.08516483516483518,0.10828312950762997,0.07883008356545962,0.2760727055962307,0.30696721304588737,0.11388372710379613,0.4021719456795201,0.22626070967524534,0.027336801227310022,0.009054409929933907,0.1453560259398855,0.8213600103498623,0.17372325063352817,0.456433051760717,0.06867107721969795,0.15889451987436815,0.26434879558609803,0.01889129882144941,0.1762933638776715,0.37500195751775256,0.14648544267186514,0.8067045462278192,0.7825127144542191,0.9134221843134129,0.3863636369914772,0.5252799688347141,0.5921614271253433,0.4518505670705282,0.43060071779214315,0.3693085315288325,0.6306914684711676,0.05472459291279186,0.09090680841745302,0.6367791255868271,0.36322087441317275,0.15979770385232905,0.13510747940164256,0.6081132630816478,0.391886736918352,0.13857251846048907,0.12341814998287218,0.5919862433443506,0.2803408595106983,0.1508667734358807,0.0446521127537062,0.09018777230342963,0.41093665403356794,0.4171779141104295,0.5448460508701473,0.1900640612739644,0.15542421306912238,0.16991131836063705,0.15704212520761102,0.00826359299416476,0.42201964193411967,0.5463510848126233,1
11,0.4357312912395357,0.02502894790755869,0.385334283143712,0.06467291866847467,0.025190052744129113,0.07352823489647095,0.028167939970489497,0.348575712143928,0.1002747252747253,0.1382950178711021,0.07827298050139278,0.20285777638717706,0.41978650397152073,0.04194319086806477,0.6525892408333436,0.07366850231988913,0.013346033936808456,0.0009859629326288066,0.09469519088715857,0.7436494444314778,0.255755744836356,0.3545562679444585,0.025190052754690974,0.07827666085668426,0.213740963647227,0.005565503231976577,0.22052144983102054,0.21164393056741315,0.10171134292806072,0.7602537010308118,0.7758819388820181,0.8366753317916324,0.27717391404823366,0.5896874515012547,0.6367442316955982,0.5376426167315573,0.3231806918698541,0.45581289094040633,0.5441871090595937,0.023175989926185473,0.03241033752810004,0.7109384239275955,0.28906157607240446,0.08794726384245774,0.05719018330881118,0.6890716651943902,0.3109283348056095,0.07449043718021217,0.05083760194303998,0.3062150909539257,0.374494769206818,0.11342995798949537,0.052034197710242716,0.08680967361047408,0.4325933946940986,0.34969325153374237,0.3815261044176707,0.28709288299155605,0.22545094480754374,0.07497906100895556,0.07626362885274282,0.007054735902464816,0.46431088764625716,0.40039447731755423,1
12,0.4471788575146256,0.022198439429110962,0.3743060312723493,0.07590614810096595,0.022169161621267686,0.08696252506972435,0.025536922539477064,0.34707646176911544,0.07142857142857144,0.10007204199968503,0.06462395543175489,0.2067281691791969,0.49320069325403815,0.0682240509689408,0.7056812467309133,0.05584827069180379,0.01459124484890885,0.0009859629326288066,0.06612318700009365,0.6626996619027311,0.3367101378793885,0.3669224216822018,0.02216916162455429,0.09628574607540867,0.16753485323204814,0.0060018574075785015,0.2764875980890623,0.2206389196107017,0.1487624242030758,0.5766720073886585,0.5603732499891464,0.7610238855181168,0.0,0.620701600327791,0.6560012233444672,0.5849995976623381,0.16177115853931157,0.4085547919817415,0.5914452080182584,0.01896214669772826,0.030653371923433044,0.7163925226450333,0.2836074773549667,0.10663513378827277,0.07178105288180495,0.6948890745961415,0.3051109254038585,0.08892605833710199,0.062252855069354913,0.8049857619914731,0.31766232502679126,0.33275178014505535,0.2653797679932675,0.2715268355689412,0.14889009204114784,0.26993865030674846,0.2583668005354753,0.8282681594778283,0.7576118012041544,0.20129754347838408,0.19030978994469397,0.042973557575333894,0.059254734270006104,0.10453648915187376,0
13,0.5365282034032819,0.01757302570358594,0.29477756693164137,0.011754444071252937,0.017630716229715012,0.021804483830319486,0.023782681306385098,0.26761619190404795,0.0,0.010986311031422571,0.007799442896935939,0.1971976387250072,0.3905447269677116,0.010883992567029467,0.7127601809567732,0.12798437880677868,0.05382972154288814,0.005420835964582435,0.039788269300689134,0.5339229925635126,0.46373669166612097,0.5563400307822031,0.01763071624985231,0.009475640949003244,0.38597400461442016,0.0015285139036562492,0.10901088930384553,0.08977825098996917,0.006951876938532282,0.692118827706048,0.695179926982593,0.9076361487337616,0.049418604780886624,0.6118089046036532,0.6503067307221793,0.5716911305338512,0.551525394166505,0.4756936731545107,0.5243063268454894,0.01730053172002269,0.022620609456904917,0.5512422329719168,0.44875776702808323,0.01095226096211871,0.00685708651199167,0.5460532412561344,0.45394675874386553,0.012412310566046962,0.009502366810419334,0.5576311861812568,0.5390315653273792,0.2867257254402732,0.19127946018464115,0.21460004751258033,0.3069842988630211,0.38159509202453984,0.4163319946452476,0.40512802495305683,0.3314643597258157,0.12456851805824963,0.12807318902975287,0.021898035984373277,0.24032391961530633,0.3175542406311637,0
14,0.48660972021847426,0.01324077703017925,0.3379344953858666,0.010650918063570394,0.01334056140874922,0.01773252930196182,0.016967801339507232,0.31034482758620696,0.013736263736263743,0.026433365401431735,0.01782729805013928,0.07603778178875618,0.39992067689412003,0.0,0.5830639948823675,0.22682454457321283,0.05925512292869236,0.00853292439938098,0.06625750593984263,0.6614448688544476,0.33545171397974183,0.5706766203624084,0.013340561418919442,0.010190802765602622,0.3396969939694983,0.001231098393937711,0.13005111804283376,0.07578691908545454,0.01290211668313955,0.7545454561433634,0.757738384737865,0.9707659316788331,0.2833333328020833,0.5545580409056146,0.6069350567231875,0.49945525058709395,0.5401716068771494,0.4566006293342272,0.5433993706657728,0.01305845079497835,0.01821486676315641,0.6567584647103905,0.34324153528960943,0.016699372301116136,0.0025880112393574517,0.6310682454100128,0.368931754589987,0.01557492422376041,0.005226493505696962,0.4609539974681007,0.5092645510309991,0.32370459049821576,0.25279205417977574,0.26325417107206345,0.3416350839198701,0.3361963190184049,0.4591700133868809,0.3099535058029911,0.26649274687005675,0.2178155385861033,0.13783625970926008,0.10770954872274914,0.35623325971523895,0.4635108481262327,0
15,0.4873162937711355,0.029238911113737463,0.3377676870377465,0.14989534067629817,0.029275761218414197,0.17453537299649435,0.035199787101473236,0.3193403298350824,0.1675824175824176,0.23578834185060843,0.14818941504178273,0.21224307798207426,0.4610036561344011,0.09211574196973721,0.6897220425688838,0.05098611466058407,0.0030940539723118147,0.000448551062458367,0.22668925929235936,0.890063300218141,0.10921385380910043,0.1740363888415002,0.0292757612381224,0.19099451135642426,0.09968001776497738,0.012230667827313016,0.40990293152756363,0.3131679980029791,0.3668507551612459,0.4638848930572289,0.4600546289856665,0.7042043903218498,0.0,0.7411591461611575,0.7479887490812749,0.7359703978347807,0.5994682123729107,0.6411004997074229,0.358899500292577,0.03332513366739269,0.02825896564810495,0.6083362595457542,0.3916637404542458,0.18659250203984717,0.16777061388391049,0.6063952270446226,0.39360477295537727,0.15645556749362347,0.14075123328653014,0.5786295513926052,0.2098715338227189,0.4197480977368643,0.2863860162512426,0.4048320436638268,0.5690308608554413,0.5656441717791412,0.6171352074966533,0.42280440816517734,0.33781008203455504,0.20600733311166933,0.18773667255812282,0.024436528761309285,0.3875601083908964,0.41814595660749504,1
16,0.41624729458301735,0.02897777473451995,0.4044489985205145,0.08069896010396578,0.028947604565997497,0.08875214322548161,0.03158956976458579,0.38305847076461774,0.0631868131868132,0.08404953745121202,0.06350974930362119,0.23333638951840355,0.49198501599157096,0.07061322006902043,0.8013574660198359,0.055074976300123486,0.010255317633067125,0.0007066394377985781,0.0913672489008576,0.7361777689467554,0.26337049563755877,0.3187019236844141,0.028947604568647776,0.10136271808298218,0.1921195447849724,0.007329920868478406,0.24437239868308272,0.24528821086410701,0.13687580513862166,0.6608062536573712,0.630217808293004,0.9045020463600411,0.08388157855242598,0.6399051387973027,0.669371637551778,0.6113524406148878,0.3740630557194238,0.4583365029395654,0.5416634970604346,0.026479966096947565,0.03677872680310782,0.6123127530523126,0.3876872469476874,0.10163154933667876,0.08663491880028665,0.6004409487625818,0.39955905123741814,0.08615832120237785,0.07518449144900766,0.8552801980149731,0.34098597270334546,0.43122199032639463,0.20306651825248512,0.2848224451280283,0.26908500270709257,0.40613496932515336,0.4431057563587684,0.4214380799575267,0.24136429964071562,0.1868369397714868,0.16245527128005852,0.041241248015120045,0.10702817850038376,0.1796844181459566,0
17,0.6330130559607987,0.026366443312305296,0.21921807681606575,0.17243260006195515,0.026267307287338008,0.22669808944941844,0.03845383533822729,0.18740629685157428,0.18818681318681324,0.30802891131359944,0.16016713091922008,0.2901483030463537,0.4546627251328482,0.1053889036368463,0.8580047404059001,0.021238560466965848,0.0025651109603339294,0.0002427337504781986,0.11875075631503527,0.7889684199079048,0.21061997863069165,0.1551381962910956,0.02626730730237762,0.22008590300327235,0.07310472350654358,0.012993881785905168,0.49369931914543874,0.321577057444848,0.48930382998283384,0.33425484446259934,0.3258085360735581,0.5702592079244132,0.0,0.5110690002769052,0.5828332015842816,0.4274351088025923,0.6298993693759845,0.45553788305067033,0.5444621169493298,0.024129462286598787,0.03376863309834683,0.5259947861784091,0.4740052138215908,0.20000111496931428,0.20722623516832436,0.5205145892044966,0.4794854107955034,0.1662936307964497,0.17398242930523145,0.8162164873052933,0.24179037138012605,0.37189964347541615,0.26988597943023634,0.30780539099184856,0.40877097996751494,0.4257668711656442,0.46452476572958507,0.5193999086511998,0.35020416671775945,0.15027079593408424,0.12824611234062072,0.038492435713796014,0.1714048525288599,0.19723865877712032,1
18,0.6679480120139132,0.0634173554191154,0.19438163894880967,0.18882559163415502,0.06331587689994779,0.25381140897254206,0.08753954461385949,0.19715142428785615,0.20054945054945056,0.3232517743815011,0.17827298050139279,0.23814207966045547,0.3575054315927094,0.2097159543403239,0.6734096352756519,0.11798151901670934,0.02725592965867713,0.015154116329904897,0.07511352576532922,0.6828900317092661,0.30295620671809276,0.45600233766531495,0.0633158769062856,0.23671621500430828,0.16285134308137394,0.024392396765365816,0.2833331271995977,0.4126809419869817,0.3144034669966629,0.5534501652478828,0.5325279363733605,0.6781004348246085,0.25000000053125,0.5799239031978649,0.6468064345711988,0.5035641450042245,0.5241141072856883,0.23255151878971486,0.7674484812102852,0.04096828985156177,0.09311123865007079,0.62235454095774,0.37764545904226,0.23263115107609633,0.20650506685259476,0.5960542806768351,0.40394571932316486,0.19527110300192618,0.18060866034766687,0.7793698661021147,0.2030853301292091,0.2797066047794192,0.2861130503734529,0.27858746080637803,0.3795343800757986,0.39263803680981596,0.4672021419009371,0.6188061414501036,0.4688293215288592,0.05082575986714032,0.02764966117646596,0.005692752702902963,0.16044045549237976,0.2011834319526627,1
19,0.7001359289874702,0.019466414534872037,0.17153099379648407,0.14459335590817385,0.019392963597436353,0.2030477234378713,0.03243530094344357,0.14167916041979012,0.1153846153846154,0.20878275318284367,0.10139275766016714,0.152446206011244,0.42718498399502636,0.08893018316963103,0.7867464602830725,0.037443926196541834,0.002149212107070239,0.00044936779782336764,0.2171401097342382,0.8842379369387713,0.11466601666037532,0.13844589940552687,0.019392963598959333,0.18433136154468338,0.07290995559510284,0.009532892691831593,0.49441868827320656,0.27935344938158413,0.42497839300462703,0.29849381477125925,0.2859938698475246,0.5220011808315961,0.15937500009960934,0.46718975517632577,0.5548070361431441,0.36229488167361446,0.5986504522301788,0.48061184572979576,0.5193881542702043,0.019059128947860476,0.02461094487947977,0.6269625235967067,0.37303747640329343,0.18299841186685167,0.15905472148087973,0.6188495858688717,0.3811504141311282,0.15168979366469187,0.13319295712345658,0.7155952183016325,0.24357246161022722,0.3022027500366038,0.3140375654543714,0.3155541695246366,0.4910665944775311,0.5901840490797546,0.643908969210174,0.41327524486553374,0.3276875820038994,0.0782395494229105,0.06662592524956899,0.004654058205594188,0.3170746988706671,0.4142011834319526,1
20,0.4366758827580117,0.02280834160441575,0.38446779658583397,0.03619996187798484,0.022807931065078394,0.04268625691348805,0.025766650946264368,0.3553223388305847,0.03846153846153848,0.05511996174369124,0.031197771587743735,0.2312083239210286,0.448334071754248,0.05229625696840987,0.7846686186180272,0.1927132071904486,0.04212056758758083,0.002415249821379976,0.07977681933786626,0.706495118421875,0.2931644119141672,0.5198921566088138,0.022807931081699366,0.04289659635255934,0.2874504054165513,0.003530652100770704,0.16011771300378444,0.16146461688098057,0.045835374632393414,0.675601967337455,0.6598207982987218,0.9134221843134129,0.09807692281129807,0.6908334200415793,0.7066133959539631,0.6779709162792762,0.43798751941319614,0.5224464814886094,0.4775535185113907,0.023339285214774134,0.026775347348129433,0.5308055407063331,0.46919445929366677,0.040232276299011716,0.03930038611010586,0.5345430417083804,0.4654569582916194,0.036626424191624145,0.03561119646214624,0.8220703043874187,0.4344788115643229,0.37297593106369953,0.2812398851137913,0.32348828680468394,0.5148890092041148,0.6993865030674847,0.7630522088353414,0.5356045611939366,0.407674338757342,0.24721959731885812,0.247158369510235,0.035354378566469113,0.2528546590855693,0.3767258382642998,0
21,0.3931345556846053,0.024117817418299832,0.4276767518289363,0.025975928024055628,0.02411504371857159,0.028623839688465318,0.02533886170913053,0.3920539730134932,0.024725274725274735,0.03336241179254476,0.025626740947075212,0.16552837525466194,0.3851288055607158,0.027873639500929116,0.7466063348010892,0.3188410544186142,0.056485766368030536,0.0023989151140799627,0.09944603806005951,0.7543253584008192,0.24572540077937363,0.563526325135485,0.024115043713510323,0.028324256981820617,0.3512619679380828,0.0029508537179788403,0.12437301235056258,0.14376297769899948,0.02326189995941716,0.5877922082944079,0.5669314138939378,0.7932733799783556,0.03320312502075195,0.6564082241840952,0.6814901935791688,0.6328144830716225,0.150215035521839,0.387939021808534,0.612060978191466,0.019811358261438382,0.033875634236020656,0.6785304640987997,0.3214695359012004,0.035699409876665686,0.017130498475413522,0.6358182223035359,0.36418177769646404,0.03216187937789542,0.019974688954950394,0.7677629513652657,0.45992210075338025,0.3593456226491847,0.2805830880998322,0.28511399946486,0.14239306984298866,0.1950920245398773,0.17001338688085676,0.5012863004126311,0.4376203234785594,0.21658601386772516,0.09039665473269137,0.16793738230405897,0.06692981219554218,0.07928994082840236,0
22,0.46875518874822775,0.018401610108386306,0.3545963393178305,0.0616048795302635,0.01844660035975192,0.07333602607350698,0.022141968027105323,0.31784107946026985,0.05769230769230771,0.0858636750238484,0.0467966573816156,0.11296730616460846,0.2791203948462101,0.06318024953543935,0.5429864252555844,0.05864552111846121,0.004982244905881584,0.000475503329503389,0.18095683558708026,0.8595639995389751,0.13994908855672125,0.2271354967695569,0.018446600361462444,0.07276147564392378,0.18703410986453523,0.004384057628418905,0.250536401870484,0.18443107689310723,0.11021893887277509,0.5581818183187818,0.5733446707866728,0.7932733799783556,0.25500000015937496,0.8828846194087632,0.861708072400494,0.9055978049578588,0.2619421080504907,0.6333106323973736,0.3666893676026265,0.022685845908343227,0.01737220128820008,0.7368864720718834,0.2631135279281167,0.08442392954548275,0.050248688382470375,0.7292163929850037,0.2707836070149961,0.07155614743054026,0.04284384088264335,0.3439400334579617,0.20063209248828118,0.3811750189965538,0.23617884646716275,0.3127006613659646,0.41093665403356794,0.49938650306748467,0.6358768406961178,0.3008888940939487,0.23892410883986706,0.20138983843560143,0.2177994030241378,0.030583117565099897,0.42201964193411967,0.6370808678500987,1
23,0.37323150766125957,0.01706547479244446,0.4483474372951587,0.060739086221918995,0.017121005882303104,0.06330090384426257,0.017092530591848183,0.4220389805097452,0.05082417582417584,0.06339989004376007,0.05682451253481894,0.1853251547784548,0.48578568578462844,0.03132466153437748,0.5606096690012338,0.03024368453086173,0.012642525225398426,0.0005424756294334438,0.04198750534692084,0.549335154377071,0.45086062034192165,0.34710145468137754,0.01712100589721175,0.07539907636903022,0.1749096506586545,0.004319607128798942,0.26621177343159463,0.1828060893526091,0.1203158922110335,0.6327161874383979,0.6519632161268615,0.80870751484833,0.0,0.8826968926870915,0.8535825404678941,0.9179879997879383,0.026728106180242683,0.5203508915692263,0.4796491084307737,0.01826679692346198,0.02047515235669082,0.8338074426526616,0.16619255734733862,0.09466440695610245,0.04324323030484563,0.8110281275752984,0.18897187242470143,0.07905926084274367,0.03766438095372394,0.49514192112520744,0.46072779866568525,0.3079344751817473,0.26534992339322583,0.2713854136540692,0.2788305360043314,0.34969325153374237,0.47657295850066933,0.2047852717626805,0.11822050005518019,0.08441676764691114,0.036360414634802565,0.02611850276799286,0.30611030183418697,0.4990138067061144,1
24,0.6958708666530082,0.7250672603309044,0.20985639602404993,0.7545064819464519,0.7240358802317964,0.9573960825941922,0.9235658919143669,0.41829085457271364,0.30906593406593413,0.38917124611700343,0.7662952646239555,0.6855643164850985,0.7149306431229486,0.37138306344571276,0.22423328299234935,0.9902997232951819,1.0,0.5822245061772964,0.013192498351101608,0.25826330560992905,0.7073630157944751,1.0,0.7240358801499975,0.7663243914614288,0.6536125300592641,0.5790627434195664,0.03916164442840739,0.9119557220304491,0.280430240375957,0.6530594420058994,0.6388520140826092,0.7421555247546481,0.2693661965433538,0.643747526687438,0.7303240155222428,0.5184842449117144,0.13618800582691226,0.3664372962402639,0.6335627037597362,0.5764099182173595,0.9196619136705232,0.8078356388603354,0.19216436113966462,0.8259053854696238,0.5851264034361336,0.6665200773973803,0.33347992260261977,0.8067649710285772,0.6975785595847961,0.5609543241675696,0.0712651724732778,0.01913991370501926,0.017613170653580687,0.01932646153998982,0.5062263129399025,0.40490797546012275,0.4792503346720215,0.7418225256772107,0.6102990766514206,0.0069104417931803155,0.005818855645201154,7.28175245004323e-05,0.20116535877073446,0.1940828402366864,0
25,0.36559297808868263,0.0009376894980962433,0.4563050634804592,0.0,0.0010033314223551679,0.0,0.0,0.4152923538230885,0.0,0.0,0.0,0.0,0.09295662264790516,0.002123705866737456,0.5666550643312224,0.0460708422782537,0.017322598461733337,0.0011411426519789337,0.045962260486782994,0.5720870898566396,0.4272203938746518,0.39098777454814726,0.001003331437986487,0.0,0.2601960552527541,0.0,0.17943179616504487,0.0,0.01742732100077543,0.7334754633902693,0.731494709057383,0.8750789023226446,0.19921875012451168,0.6204265705292684,0.6548736150172898,0.5861999392139268,0.6612275300209705,0.5009946909947235,0.4990053090052766,0.0033339859878679552,0.0023591931840884206,0.5007641364884466,0.49923586351155336,0.0,0.0,0.504179722132412,0.49582027786758803,0.0,0.0,0.5999647294085237,0.6011118750005463,0.1335744170529684,0.10150367674210294,0.12479403840434129,0.6437466161342718,0.6993865030674847,0.7630522088353414,0.4116005168624419,0.33431533641524935,0.12342633097945067,0.11191446849921256,0.012786511059439435,0.492505051454349,0.5838264299802761,0
26,0.4186888088711145,0.0013664914782292002,0.4020053897114829,0.02123714340133047,0.0014403030554347614,0.02527650052913056,0.0017552969767825471,0.3703148425787107,0.021978021978021983,0.03184038094963161,0.03008356545961003,0.002731984311207013,0.04508196715457469,0.009556676400318556,0.43966817487205423,0.036998204505108705,0.00836610568274056,0.00047877027096339175,0.07550427286870408,0.694096355964262,0.30572588183506877,0.29177402239762595,0.0014403030602844064,0.02705542497793366,0.17103675098598436,0.0008010485991187676,0.2715338599175261,0.053138903417739636,0.06883186659639043,0.6367824323573524,0.6525882498572823,0.7699863569503413,0.20238095200148806,0.8173572070546808,0.7950288377969927,0.8513986218231118,0.4617917669448146,0.56346680110778,0.43653319889222,0.004942006412029524,0.0013153409338680366,0.6659369670321449,0.3340630329678551,0.033739226614086085,0.016778687098509618,0.6583921589352142,0.34160784106478564,0.0273005933898643,0.01337899361204515,0.4047245900812692,0.263681125373369,0.2246149592131738,0.14030479780332933,0.1852637121476664,0.7119653492149431,0.6723926380368098,0.7336010709504686,0.2748818126100382,0.2340835796004954,0.19507717799875574,0.21927778220240346,0.03379374775296816,0.7227573892204314,0.7396449704142012,0
27,0.5911922225465405,0.7307685218621386,0.28635372058517106,0.7213391525879244,0.7309370247723428,0.8548901853950526,0.8707280884995185,0.4726386806596702,0.035714285714285726,0.03954127624967957,0.6598885793871867,0.5622765196521877,0.6159949909468202,0.28670029200955666,0.0,0.6943589373509159,0.8681229196299478,0.4910413114548442,0.009640071146852247,0.20147124742076553,0.7627462435840753,0.9783728175152662,0.7309370247274037,0.7099892617679363,0.713856185804842,0.5450298366856793,0.02990586031753091,0.9022037228083777,0.2359170036684106,0.600625000226846,0.5875978982473119,0.6908882026550918,0.05059523853162201,0.6611942441709382,0.7689269360919522,0.5022799901361088,0.10244686368493139,0.3206975910998362,0.6793024089001639,0.5570922994918122,0.9535781610758389,0.8575603781758012,0.14243962182419867,0.7860441438025362,0.5153288688450464,0.6624193966967545,0.3375806033032455,0.7709095497147646,0.6698168614587457,0.2647803166304972,0.03139554457057572,0.03362244761258461,0.009023398159259316,0.01961437910094388,0.41959935029778017,0.45276073619631907,0.49397590361445787,0.3895362682063233,0.3322031612120023,0.018903579528362625,0.013084108916586151,0.0006697101601155701,0.28731419262879254,0.33530571992110453,1
28,0.6629050144401967,0.7230976107995426,0.23391136214941854,0.7694719402027335,0.7221150750575731,0.954848050306386,0.9015428986263474,0.4490254872563718,0.1964285714285715,0.23945749912530317,0.7442896935933148,0.6343908665189613,0.731747773361557,0.46721529068224055,0.19232965767281468,0.43145115409974316,0.5613716871447773,0.49589427132014174,0.009105730586368673,0.18557048366080184,0.7572977636249822,0.9117404192092413,0.7221150749937212,0.7917978402200359,0.6300867646773056,0.5951703130828905,0.043200544262910645,0.9163738195055426,0.30123704610434066,0.7100930564958267,0.6915172301688256,0.8500709959658916,0.2328767122705479,0.6643235958685101,0.7292911104042554,0.5739837043315132,0.208989315707508,0.4090008383790974,0.5909991616209026,0.5968159646947032,0.8934344219029081,0.7226653846205698,0.27733461537943027,0.8139701474043395,0.6512444434837779,0.6328284966289689,0.36717150337103094,0.8059923573490264,0.7294900566885765,0.5517984947336572,0.02517720758803521,0.02301227087403862,0.0005180372169095032,0.011205082715474685,0.23876556578234978,0.40613496932515336,0.4431057563587684,0.4160898809732941,0.28757004819070275,0.007883844094666425,0.0047127430203317364,0.00020881920196291843,0.09512397600363391,0.1796844181459566,0
29,0.8247679198731122,0.7302658485978859,0.13202625824833591,0.7227714585175921,0.7291906499266289,0.9888189476473751,0.9999999999999999,0.29610194902548737,0.6208791208791209,0.8741214360984892,0.7710306406685237,0.7588391391083934,0.8488679245950123,0.33581099017786037,0.455074337459453,0.9191703447821356,0.8456090142795109,1.0000000000000002,0.015015327144916863,0.27099546847153166,0.660848783641044,0.9743550307664872,0.7291906499275967,0.7094435951715496,0.7125802668826342,0.5433933017186752,0.03008736740136063,0.9017196165011305,0.2361695377933483,0.6118113226107894,0.590321822613087,0.8033438789412459,0.30797101419248185,0.6379540639450774,0.7183679957297004,0.5232341663019291,0.23851321858945873,0.3834889848304148,0.6165110151695852,0.5894924751629596,0.9166446530610804,0.7115995962365949,0.28840040376340526,0.7255878070967988,0.5877947565291108,0.6026233485768375,0.3973766514231624,0.7411598719606063,0.6980705942829624,0.7056488802702021,0.1635946972072272,0.017337601769384856,0.016719882529780017,0.01763119103013991,0.3459664320519762,0.35460122699386504,0.38688085676037487,0.6947193366671741,0.41379014359112704,0.00680206281620442,0.006309322275165774,5.9274168494313244e-05,0.14477703115455104,0.1650887573964497,1
30,0.39100907777154603,0.06524611836940815,0.4300849248644042,0.09325176718291235,0.06519256097757734,0.09911388345209729,0.06893560330630613,0.4077961019490256,0.0480769230769231,0.061568672773215594,0.054874651810584964,0.1454748487002449,0.3016552601549719,0.12131669763737724,0.5216289592476944,0.3361606706997957,0.048376675248206887,0.010502400058543592,0.12302531731603666,0.7931356261966581,0.2034042370741944,0.5404366831969419,0.06519256098880771,0.10773316553616245,0.346892394295579,0.013694764829105595,0.1264824790926853,0.3289319226955618,0.07634991747636563,0.4437952335106846,0.3994490365858975,0.6493860836384888,0.0,0.6233152863972768,0.6579607724891525,0.588438007070244,0.3267720102840683,0.5085224249275937,0.4914775750724064,0.06061197069590149,0.07633330115865991,0.7758013442519179,0.22419865574808207,0.12396897937597609,0.07472827176367461,0.7390929384994501,0.2609070615005498,0.111719774914732,0.07371769657660648,0.800037243993398,0.2685984768035489,0.06686313015150644,0.050175519038785074,0.05380309761098798,0.2853275582024905,0.4638036809815951,0.5060240963855421,0.47812118160063394,0.3691585633529938,0.0516318156033727,0.026766106330280696,0.00560035535514797,0.12081199191767304,0.21696252465483232,1
31,0.6594750950278174,0.6187331005009549,0.22912497765079542,0.6435860018255732,0.6185861983030231,0.8040870494021931,0.7754194562592853,0.36844077961019484,0.19505494505494514,0.25897259032758796,0.5974930362116992,0.5694316150035866,0.6717213115019175,0.2774090788425803,0.14379084962115163,0.6397107168769065,0.828659312261843,0.6679259364769369,0.00912326144890231,0.18744298960815806,0.7604383746198429,0.9712591187656697,0.6185861982243525,0.6486890560858224,0.6537917558338258,0.4277155823078944,0.03913186450910977,0.8632031351675766,0.23503392823984012,0.5926988643689765,0.5852980802841562,0.7585266026805313,0.04521276652825797,0.7233229994036199,0.809769984991006,0.5932632047854844,0.0732291315096838,0.33195883491475286,0.6680411650852471,0.47662323249109967,0.8026553405441704,0.8587697110875587,0.14123028891244138,0.719872744960854,0.4689058097467894,0.6851059173562789,0.31489408264372093,0.6934896883795247,0.5828150159800286,0.38455634498446606,0.0621519302371247,0.03849536624297936,0.027146283920205086,0.031585807050630396,0.30157011369788844,0.32147239263803684,0.35073627844712185,0.31057811298363136,0.23731775208151953,0.025976974591414147,0.01640608392290353,0.0015451245503126513,0.19803267390316873,0.22682445759368836,1
32,0.3358045412189028,0.016167924166198777,0.48916120040167266,0.0231679651996788,0.01617945719985622,0.02189902702499711,0.014779564232607213,0.4497751124437782,0.031593406593406606,0.03663284769162585,0.028969359331476326,0.15626645784122714,0.2704918032484319,0.013273161667109103,0.5574660633181466,0.06020458681699401,0.017804095881247275,0.0006241491659335106,0.05842692873161244,0.6332786678215556,0.3670983334894591,0.3948642347971536,0.01617945719794807,0.026996946010045028,0.2919832566641061,0.002155314553799994,0.1571775329270554,0.11581027198573968,0.032731665540968846,0.6938953487927492,0.6617378612637902,0.8153945569218173,0.1180555565737847,0.7068525078512837,0.7183002515958978,0.69903011563096,0.12250953891895278,0.4414959377484927,0.5585040622515073,0.015021419411480535,0.022119225139637606,0.7058819005683447,0.29411809943165534,0.035888531537223836,0.01435992416151198,0.6750458225262917,0.3249541774737081,0.031123834401913637,0.015144002582928466,0.7456882707540244,0.4120544391048221,0.2955535928061983,0.0986436075437311,0.2125858412363612,0.6231727125067678,0.7815950920245399,0.8969210174029452,0.4371703733199042,0.32002673173842133,0.21468220814051625,0.23174261514328592,0.04887462995901721,0.30454395940040413,0.4437869822485207,0
33,0.7719234687335397,0.7092263124796856,0.16012726422407997,0.7325264379155922,0.7083563964690428,0.9747331769073385,0.9457993356346983,0.33133433283358327,0.5741758241758244,0.7824431975970578,0.8662952646239555,0.7741891309349986,0.792943843793002,0.3400584019113353,0.2650602409086845,0.8749674374581208,0.661949287590487,0.6786763790658312,0.01943035641005414,0.33118122827258256,0.6140440138409453,0.9369227036640237,0.7083563964558715,0.7391030446652304,0.6624637403699482,0.5485211545654018,0.03770804031932269,0.9032316741318107,0.2662262717769589,0.6913539656922664,0.6775762422340729,0.7833863877821723,0.43220339114512707,0.6947123779690081,0.7438311205603403,0.6282118171476094,0.4248307701418894,0.43560701118215317,0.5643929888178467,0.5985663878788685,0.8616000222304117,0.6186192710308474,0.38138072896915265,0.713387614104471,0.6568217264399913,0.5729703089476854,0.42702969105231464,0.7365643476028693,0.7220275356609804,0.7274331475276765,0.15674817023901455,0.0,5.541866961167319e-05,0.0,0.4856524093123985,0.34969325153374237,0.4243641231593039,0.6740799731418912,0.5590872582800946,0.0013726460361329282,0.000833023833000503,3.517754806784169e-06,0.22466049527747756,0.1992110453648915,0
34,0.7354119213118229,0.7263206018402223,0.18643822537830912,0.7712676056297338,0.727255168399091,1.0,0.9450512607472192,0.3838080959520239,0.4423076923076924,0.5749043359951074,0.7626740947075209,0.7174150356921488,0.7279684388721702,0.3490841518449695,0.2931121165813695,0.6462054879938022,0.43803301079554824,0.44214606037895876,0.022347333742402622,0.3646245003533044,0.5840298542725525,0.8738534525734233,0.7272551684288967,0.7856220138596973,0.6401302185074114,0.5949605997466205,0.041444151863996775,0.9163170671181184,0.2940332777926936,0.6600339864763155,0.6688273694429979,0.815154428327008,0.19921875012451168,0.7420927489370674,0.7549950362846054,0.7244695532589502,0.4269015101434923,0.497066222776947,0.502933777223053,0.6446042546747501,0.848351391297383,0.6438809943053331,0.3561190056946668,0.770311248784021,0.6860779243119296,0.6148873554252531,0.38511264457474687,0.7948791549058487,0.7369275224565943,0.5097888017191303,0.13413681645743225,0.01924658910110351,0.011971389427650997,0.015027654278755603,0.48456957227937203,0.49938650306748467,0.5448460508701473,0.28579682309172744,0.2284735932116099,0.007104986566348532,0.0035925439961985764,9.146162497638839e-05,0.4940713938881318,0.5463510848126233,1
35,0.5246736768438411,0.6832121676794467,0.3374179424579834,0.692104176013641,0.6849394547494005,0.7853069842733467,0.7804502998230415,0.464767616191904,0.17307692307692313,0.2072179064359596,0.5704735376044568,0.5558449733010655,0.6762295082815716,0.3485532253782851,0.07836718969710221,0.4627781712432751,0.5970265921842688,0.43046249763555117,0.00922003051086116,0.19090361735369835,0.7626954316191156,0.9211484197289893,0.6849394547304877,0.6943513545066285,0.6809036578665735,0.501678807517221,0.034787860376424895,0.8888633494608289,0.2421352532922846,0.585485190520333,0.590321822613087,0.813212968954619,0.2931034474331896,0.6835664329444318,0.7593748486400236,0.5755441311301834,0.11381731108321835,0.3642923366086379,0.6357076633913621,0.544200204382943,0.8713508126888836,0.8138549343366683,0.18614506566333178,0.7519143022782345,0.5259365549798797,0.663059664050718,0.3369403359492818,0.7416240657147153,0.6433841650525334,0.3162764035815773,0.07652418262271715,0.008866492386827823,0.009026382452156131,0.0096378829094637,0.5094748240389821,0.34969325153374237,0.3815261044176707,0.23855309746604672,0.2038295054628392,0.002465167871526063,0.0014788046574235787,2.3393069465114722e-05,0.5426280093354009,0.40039447731755423,1
36,0.3515300407194779,0.18307212981296403,0.47294336446697305,0.27328819708412694,0.18289420358508265,0.27755599599902137,0.18726549367246054,0.4347826086956522,0.26510989010989017,0.3284476130489446,0.21922005571030645,0.7530790623943195,0.8436768149703432,0.21396336607379882,0.7466063348010892,0.47774251332903717,0.05375053993302511,0.004163063502481406,0.15858355902820487,0.8392691811456444,0.1601844805922432,0.55612053340304,0.1828942037130301,0.3163067392358718,0.36457446079822176,0.07396261763695466,0.11819995830240773,0.5832823959506501,0.20387179099122252,0.43440259832253647,0.39645625569284915,0.5969511829850764,0.24056603752535374,0.6213857956614515,0.6530325261095109,0.592588205501801,0.8925305288940923,0.6913995284748063,0.30860047152519365,0.18828515904205223,0.1788210862461479,0.36067490901898225,0.6393250909810176,0.24533549477975158,0.3312598296009702,0.4304405416991275,0.5695594583008725,0.2444737902554554,0.2948977700485354,0.8649230204313871,0.4215542099483187,0.22623212875743662,0.20855879149902112,0.2208571717044634,0.2983216025988089,0.3717791411042945,0.4056224899598394,0.4277231897127197,0.3433894127601133,0.10041533937451526,0.06072528196262452,0.011787039528226304,0.11846247826699872,0.16410256410256407,0
37,0.2397217550764228,0.14637270092753144,0.6055941769860463,0.20602236793920686,0.14658108150852298,0.18579667821601764,0.1338916896593321,0.5337331334332834,0.14560439560439564,0.16103052783444044,0.14818941504178273,0.7979737782393658,0.8526679524160415,0.1810459251393682,0.4016227179691426,0.10254212375346401,0.02598329916553568,0.0002647856053332166,0.06830524515311286,0.6715814072756702,0.3294819273982845,0.44906000757419273,0.14658108153551458,0.2328146743939027,0.3893714658238897,0.04746033399135584,0.10762853580824217,0.5140130573377122,0.14076127437168667,0.7675401071358326,0.7594692516598472,0.9292152172461334,0.06439393879024621,0.5427900839270161,0.5941269933558528,0.4917635607969846,0.5381072820845163,0.49930450723817266,0.5006954927618273,0.13213502807571792,0.17179332916280798,0.534263368146584,0.46573663185341596,0.2130369048446369,0.2179098462099556,0.537296473270065,0.46270352672993503,0.2010397462659671,0.20494536449481007,0.39919424229528594,0.5360330412008926,0.14689839764693202,0.16785063806983014,0.1611346036243193,0.19436924742826206,0.06355828220858896,0.06934404283801875,0.34148445704068925,0.24446971833576533,0.001854356796617454,0.0003831591773843167,1.9523539177652137e-05,0.15574142819103115,0.05305719921104536,0
38,0.4211096898963296,0.08350248591504408,0.4002708142092649,0.16462784244087886,0.08370519432924599,0.17932024204816274,0.0910067702262696,0.38080959520239877,0.13461538461538464,0.17707892677094356,0.10919220055710308,0.5687080660033098,0.7663934425907212,0.10406158747013539,0.5451411333278655,0.14103296571561996,0.015208115007383817,0.0006029140464434932,0.15924720786904684,0.8404883402510982,0.15962455785178714,0.3726975256836207,0.083705194331568,0.19654885357996033,0.26156744036924057,0.026014940110656526,0.17838701401073084,0.4223015925492277,0.17901699279680708,0.4572420836450578,0.47539080079007523,0.5674037881973423,0.15740740734837963,0.8051860082825222,0.7995629734008796,0.8123254435269271,0.30329031321071254,0.6107482330629653,0.38925176693703467,0.08417903000883548,0.0881636723424522,0.6023470326573339,0.397652967342666,0.19094854655273807,0.173681091240039,0.6074333774855002,0.39256662251449986,0.17015407854225287,0.1534469649079681,0.5040950610281527,0.44024082501974615,0.18132033600265982,0.17768519589503096,0.17683016116788308,0.11857065511640498,0.16809815950920245,0.09170013386880857,0.06741463376548341,0.05293926499981606,0.062308374332507376,0.06229875215722849,0.0045072236022042095,0.1352223423084755,0.09250493096646942,0
39,0.563246469223416,0.051667971286368894,0.2728639769086222,0.17984882421185738,0.05169705347159677,0.22272634486602932,0.06570941392043647,0.26011994002998506,0.2362637362637363,0.35162133056145806,0.1816155988857939,0.48386451578398987,0.6332472491304085,0.10591983010353068,0.7036979248305686,0.026782175545783035,0.004621262671143622,0.0006241491659335106,0.09385670059653041,0.7410639135018459,0.2574005822700085,0.21830731389509106,0.051697053470665076,0.2273741316550113,0.13876852271596796,0.020387689087831534,0.323092581668872,0.3861511276870948,0.3412208250070684,0.5213636370826954,0.5084936192564092,0.6725784442654141,0.15548780559717987,0.7268508515684724,0.729841291599842,0.7305992110515973,0.4658559069033652,0.4998340798088786,0.5001659201911214,0.04816757346730226,0.061321349183870034,0.6110436683760515,0.3889563316239485,0.22170768157084525,0.20008520109114844,0.6033108444476872,0.3966891555523126,0.18739725958791303,0.1709465362188053,0.6409182244984204,0.3158548431142437,0.3370946200789332,0.18141447035665037,0.30766093270601363,0.6188413643746616,0.45276073619631907,0.49397590361445787,0.3861946197898977,0.2925240033843852,0.08673809732928937,0.07971853838613073,0.00478497672736087,0.4204532995003367,0.33530571992110453,1
40,0.303211979454834,0.13960029363950363,0.527004754865945,0.2779897862823316,0.13945013625013147,0.2696538452035201,0.13605325385164588,0.4587706146926537,0.23076923076923084,0.2789840051337958,0.19052924791086354,0.7399202663155046,0.8357708149270936,0.22219272630740647,0.6412711775760396,0.13372046759804174,0.0073503841300929145,0.0002394668090181959,0.2905311939175679,0.9193840016496858,0.08076485392949845,0.2750668554552844,0.13945013630841605,0.334178812335237,0.2573758149839941,0.06119666918555633,0.18160681554952532,0.5535756144286936,0.29646213486800377,0.4932512320946266,0.47271948179078327,0.647473312287927,0.06250000066406249,0.5865598055570533,0.635704500148909,0.5305480504778393,0.4795800376574624,0.5982730694218278,0.4017269305781722,0.1359427974912224,0.1495690815240401,0.4633530986298616,0.5366469013701383,0.2872382462760753,0.32859351970532535,0.4824939292221303,0.5175060707778696,0.2588521181654247,0.2878428939614202,0.8054241423977369,0.33530849129966434,0.17511363645499337,0.1897792469748879,0.1858786712604033,0.11965349214943151,0.13496932515337423,0.14725568942436412,0.8284204074781094,0.6492470969086829,0.0270093444811781,0.013825951493409497,0.001858549468087507,0.04766380026001284,0.05996055226824457,0
41,0.38570023212415205,0.14592368204757392,0.43544697227187534,0.2285169476622731,0.14576733968609246,0.2399799073053342,0.1539253304349334,0.41041979010494745,0.20467032967032972,0.25977771676787187,0.1880222841225627,0.6456368538654725,0.6834076078619314,0.2569684098752323,0.49008005575619473,0.5357764151115005,0.021711808669289918,0.0010349670545288466,0.43228546565889425,0.9548714191539992,0.04510976286563098,0.42314929634704956,0.14576733973767345,0.26605063130014467,0.341088334104343,0.05258556464572252,0.1293516305690113,0.5299282772044096,0.18391063956626225,0.3994704337522629,0.3719726176848933,0.530261689098765,0.11590909194744317,0.588421783030467,0.6243839216512248,0.5554825669936676,0.759944417881862,0.6490643124884055,0.35093568751159465,0.14707026374486418,0.1485795661403874,0.4095666020905391,0.5904333979094609,0.21649787455581782,0.27120762622204553,0.457617938495259,0.542382061504741,0.20860981102333737,0.24175029449328903,0.7375953573438092,0.33145213145353536,0.20166400193445524,0.22728422315490598,0.21704958702862448,0.37736870600974554,0.2846625766871166,0.3105756358768407,0.75058654518057,0.6088965800541992,0.04256865549733365,0.036184881241705505,0.0027233965228450085,0.1588741130585969,0.1321499013806706,1
42,0.38316235036235646,0.10165830205224644,0.4384348344082437,0.22723268208767988,0.1015715707116445,0.23798484686884014,0.10677709073402855,0.41679160419790107,0.20329670329670335,0.2563218401940972,0.19498607242339835,0.5985755400021944,0.6815073971082198,0.19644279267321477,0.6289592759658483,0.2087846906103758,0.01571629265097699,0.000726241086558594,0.2282947261682266,0.8915884939379463,0.10841536596732596,0.3772967156615856,0.10157157071644862,0.27930833541596073,0.2221979103306801,0.04041301488342808,0.21211090979249927,0.48920480269438515,0.28455496422920323,0.3821729491380673,0.3621708222533768,0.6409524982089783,0.0,0.6969003759728043,0.7069439622508757,0.6926375850130757,0.734372210730383,0.6625852701366437,0.3374147298633564,0.10500654216597055,0.1011521826025241,0.4448450631607602,0.5551549368392398,0.23561963247354,0.2782348620407118,0.46769906998800004,0.5323009300119999,0.21045171123247608,0.23995126589235946,0.821459060219812,0.37465306708571244,0.2973169286956987,0.24538998738108253,0.25730496995541524,0.44233892799133734,0.49938650306748467,0.5060240963855421,0.5446652691081,0.38757035474733603,0.16036739676770378,0.1705782932153862,0.023169062356773514,0.18706827686668862,0.21696252465483232,1
43,0.38100286683210505,0.10392188952727197,0.4401874992933318,0.1989923775179181,0.10398979752051174,0.20816462130002078,0.10898836719819407,0.42578710644677653,0.15934065934065939,0.1988786282617987,0.15320334261838442,0.7191586102774968,0.8589617487403746,0.14972126360499072,0.5683841775256986,0.29537347993509855,0.021691627744979788,0.0011738120665789604,0.2380668044438887,0.896673185901426,0.10323270768135007,0.4230158299138522,0.10398979752783913,0.24032720643897681,0.26651952823151714,0.03641232879995655,0.17468248692515362,0.47321743521986237,0.21140855473883088,0.3945454542258727,0.3918358271139545,0.6725784442654141,0.05182926853239328,0.7224292175117286,0.7259962514832405,0.7257940998442547,0.6020198703421733,0.5931983988806757,0.4068016011193243,0.10203253138963161,0.11180346855642051,0.39290770672007425,0.6070922932799255,0.1916716584697568,0.2479363030980081,0.4209464217574842,0.5790535782425157,0.17558114888874926,0.21692579984679847,0.6188198965847751,0.44805399505074406,0.2514105436248235,0.21926067140979938,0.2248047631488609,0.3492149431510557,0.4822085889570552,0.4685408299866131,0.33967309621683234,0.22468148765802995,0.1426063797370741,0.10608672337874786,0.05813853522779392,0.2277931801450433,0.30177514792899407,1
44,0.3558271311679657,0.12435645878150275,0.46739796640333353,0.25878235507810443,0.12431110754558489,0.26406460473516424,0.1273998483246653,0.4295352323838081,0.2953296703296704,0.36787132450605464,0.24791086350974934,0.6807056841325595,0.796240814068878,0.19803557207326786,0.6911441498448246,0.196265430267195,0.010867519280440342,0.00029745501993324333,0.3011794190112794,0.9231234718900195,0.07705294236143292,0.32650188878769115,0.12431110760882319,0.31647559695585636,0.24096128134423117,0.05302958171162718,0.19501688723796937,0.5312360404538525,0.2981455654556825,0.4820062710124903,0.4681371032760383,0.6180903684960958,0.17346938773341836,0.621667909877377,0.6536488308122743,0.5923218091541287,0.636977584474578,0.595383527850257,0.40461647214974283,0.12135564693246281,0.13355815027217574,0.46089825455457356,0.5391017454454264,0.2713224868625994,0.31175668669829204,0.4779179553516708,0.5220820446483292,0.2425856467730103,0.2717888880764086,0.7075198575282533,0.4124223587442093,0.28907514969142656,0.19599407394066548,0.233161129646333,0.33297238765565784,0.4110429447852761,0.4484605087014726,0.6554940057229632,0.5367990582580225,0.11112281653442954,0.10680482672137828,0.009109366782359877,0.1635731403599455,0.22090729783037474,0
45,0.3523800150993983,0.1734405601735672,0.47151286759422384,0.27899135077599496,0.1733567295260381,0.28371345615262833,0.1775547892450235,0.43103448275862066,0.2802197802197803,0.3484973632549025,0.23119777158774374,0.7530790623943195,0.783539371102819,0.2099814175736661,0.6601571803080457,0.2986558867391922,0.018905364555124444,0.00044528412099836427,0.274398191687437,0.9133371155033384,0.08688351664245458,0.4033779201982841,0.17335672958276707,0.32908504528203975,0.33088308221248297,0.07293303401336321,0.1345914345058788,0.5810788940095093,0.23271714653705897,0.27812220644829766,0.26556651659223274,0.47168687409354204,0.04086538415054086,0.6621924651475868,0.6812476302193087,0.6483025414697989,0.747094383759185,0.7219783550517413,0.27802164494825854,0.18218614992517493,0.16343489086720145,0.38191141921820904,0.6180885807817907,0.2613542163261799,0.3402109969721753,0.444366120892133,0.555633879107867,0.25382885442762415,0.2994111983325964,0.7953201912358259,0.4073852128486015,0.181388994557523,0.17657820109775707,0.17527068884902186,0.03887384948565241,0.07779141104294479,0.04243641231593039,0.0703034419759448,0.05520778408603205,0.0379376546781874,0.037927782421400096,0.003718736451037572,0.019626270695299403,0.01992110453648915,0
46,0.4477019989634017,0.10929190772217612,0.3743189395231049,0.19679048096901208,0.10963878883010417,0.21929377561438124,0.12199656158482805,0.33958020989505255,0.25824175824175827,0.3521288890396012,0.20835654596100278,0.732111750026461,0.7907674293741694,0.11574196973719142,0.7078934138258157,0.2415425331895188,0.01889432349116133,0.0016066818100293145,0.2219653427229735,0.8876216361256172,0.11191546429969385,0.40329486758297994,0.10963878886918821,0.23781771444499877,0.28425369961435354,0.03771793453742685,0.16223482151626498,0.4786106515035218,0.19719294378962413,0.3332267748633131,0.3521963814221921,0.4495749815157005,0.085000000053125,0.66608968741465,0.6879436887283068,0.6464312400145324,0.6696047840215313,0.55510892232661,0.44489107767339,0.10415999462375614,0.12238127733555573,0.5905887609534528,0.4094112390465471,0.2279831811445882,0.21303847635383313,0.590940427549843,0.40905957245015695,0.20426856051907388,0.19084034882251713,0.36885073717970235,0.5174816498262963,0.2519133156279527,0.22368495593668797,0.24675229652946723,0.558202490525176,0.4171779141104295,0.5448460508701473,0.28402059642178157,0.2227961643634045,0.07073955241732342,0.07174416957239434,0.0015785432209771007,0.5661231458421441,0.5463510848126233,1
47,0.3274688362962006,0.16119286133603128,0.4990999632175944,0.22447665816286771,0.16151713420474495,0.2225836041836226,0.16115093493879848,0.46776611694152914,0.23351648351648358,0.2798454087634589,0.16935933147632315,0.8448575005753547,0.8697966383307599,0.15529599150517656,0.5291736127676467,0.49750704435775944,0.056288132731389745,0.0016393512246293412,0.1577907181135095,0.8391367728904046,0.1611178968761906,0.5630030591658793,0.1615171341144405,0.24900536597411355,0.40367242531920533,0.0545003330097185,0.10202125237909596,0.5354937732822571,0.14480421178572614,0.7091829696556539,0.6937655632609182,0.7990822270996158,0.3035714290647321,0.8589456317412569,0.8267078979803106,0.9037706652152151,0.3596463860007906,0.6350614959715843,0.36493850402841566,0.16113693652136943,0.16756842776425906,0.6129889629076843,0.38701103709231566,0.24270271106336655,0.2191854537508243,0.6303946804847202,0.3696053195152798,0.2327801421486444,0.20495339004131594,0.3901875417094945,0.8437657806307132,0.17204959295836517,0.16625163657285602,0.16650844258573183,0.35571196534921495,0.26134969325153373,0.285140562248996,0.28453199355093084,0.21645504040416425,0.027539467300912526,0.011337930832284607,0.002668584626323101,0.38442742352333065,0.29980276134122286,1
48,0.3561253435054348,0.06890305449495225,0.46638511121212567,0.07432838979548874,0.0688277076933176,0.0755963940028968,0.07011819247088527,0.42428785607196395,0.07692307692307694,0.09586678231086654,0.06908077994428971,0.5703385988971833,0.748953282529729,0.080169896469339,0.7887225896766303,0.17687125845375115,0.08019607098809826,0.004285573807231506,0.036404523902955455,0.5120304944452037,0.487577436434939,0.6160617100445175,0.06882770769008204,0.07702058800215143,0.45474063488161487,0.011521769862433015,0.08443051949050365,0.30494486665575127,0.03620855340807612,0.7946478884164375,0.7724962984834777,0.9455346828937099,0.09107142893191963,0.6106716167413855,0.645179449267046,0.5775972463431245,0.30329031321071254,0.41115960286604425,0.5888403971339558,0.05764693036394247,0.08800113117125821,0.6649477104898198,0.3350522895101802,0.08287307465561264,0.06022763892257618,0.6166625176886898,0.3833374823113101,0.07937346409999971,0.06610176712099677,0.8113656096587862,0.5411153548989088,0.21075930507660431,0.17082224380907307,0.1881484718419787,0.0,0.03374233128834356,0.03681392235609103,0.0,0.0,0.0464456693986856,0.046435884447369166,0.0,0.0,0.014930966469428006,0
49,0.4617423575983539,0.06149213049672582,0.3595948778026853,0.06271266676566568,0.06155554652533303,0.07404198813857027,0.0701997403859985,0.3343328335832084,0.05082417582417584,0.0742465461708941,0.04150417827298051,0.47782293518041286,0.8098495029152296,0.08999203610299975,0.6729411764340484,0.26246750082677456,0.17041035135235677,0.01657793109171056,0.023773303065934746,0.40232002848305903,0.5948244319824552,0.7300494355239587,0.061555546523595316,0.055551093711888835,0.4981118621048851,0.008720797178561113,0.07191762807918858,0.2676148691658391,0.019810850427740334,0.7458941891399017,0.7420307720431975,0.9251527771098187,0.05182926853239328,0.5579426829592218,0.597982811124729,0.5214076597518882,0.3983911856371489,0.28891576262683955,0.7110842373731605,0.043744333516824885,0.0871998985070826,0.6215948692236535,0.37840513077634663,0.05858356315319324,0.0447924612537826,0.5442013040396724,0.45579869596032757,0.0566705970129209,0.054949781084724154,0.6014330067180469,0.4836710598110626,0.25430068232344216,0.21294914695517597,0.23068226135432018,0.3069842988630211,0.25398773006134967,0.27710843373493976,0.28957960032948027,0.15487547669556473,0.06798819196614567,0.023636751817023936,0.019361047047617163,0.24032391961530633,0.21104536489151873,0
50,0.36529932126167286,0.06959233397590728,0.4571980814634323,0.09200536903800428,0.06988651303620493,0.0947041460432235,0.07150707063861017,0.4077961019490256,0.08241758241758244,0.10519229341410372,0.0913649025069638,0.5690107269946002,0.7897299904566456,0.07778072736925937,0.4705882353409635,0.31363895612592974,0.06513988327412527,0.002733776613730236,0.08435311624400196,0.7192277901489573,0.2808414059095291,0.5848454581676698,0.06988651304928115,0.10504782233081895,0.3749962429602532,0.014229260488692497,0.11361760189489686,0.3343240651536681,0.06736446008051045,0.803347594892636,0.8093515714613008,0.9416973399197355,0.1847826093654891,0.6396154269002934,0.6689468113404311,0.6112991712042732,0.5986504522301788,0.4650630571726201,0.5349369428273799,0.06204553791180044,0.08517945278819261,0.496842551898647,0.5031574481013529,0.0928624700501455,0.10115657913615284,0.4995040554365616,0.5004959445634385,0.08829117849746657,0.09588989505155562,0.4620156069478663,0.5308619633873679,0.20709013870599227,0.2203313293230758,0.21977865119940926,0.3416350839198701,0.252760736196319,0.2757697456492637,0.18650380034431469,0.15733865924390872,0.019917297354088474,0.021976458846020074,0.00046315639224822066,0.35623325971523895,0.2781065088757396,0
51,0.25989248398125886,0.10810315146693317,0.5796699680263718,0.08409803666126382,0.10827669791318698,0.07458989243369779,0.10006250878489414,0.5299850074962519,0.10302197802197806,0.11238415518916439,0.08440111420612814,0.7201820722545228,0.8792538157266879,0.07937350676931246,0.4977375565340595,0.6045200070495764,0.29631444144619945,0.00289712368673037,0.03294981951126649,0.48732072635745205,0.5142960121726353,0.8142282618813608,0.10827669795544104,0.07290209038778207,0.6916126764251148,0.01644184851009784,0.03315575146381684,0.35490841842680254,0.01047238887998693,0.7378291538929146,0.7428378829379138,0.9210680180376245,0.05592105165995065,0.6836892259778753,0.7013051050613248,0.6687632342591421,0.29226412513699085,0.4387257333902027,0.5612742666097973,0.09279090745878384,0.13366106347377274,0.8501782894072056,0.1498217105927946,0.09319905769193812,0.03973847572795068,0.7147302713598599,0.28526972864013994,0.09956654687941369,0.06796425491083397,0.3959395880344075,0.4803916392348049,0.23626038504322414,0.17936948409744674,0.20465073860907967,0.41959935029778017,0.45276073619631907,0.49397590361445787,0.3827436651168601,0.32201628428835943,0.07537263144842579,0.04751946276641721,0.006756242094967356,0.28731419262879254,0.33530571992110453,1
52,0.350861920049089,0.07477220449783778,0.4726641389258265,0.08969920535789457,0.07470385332581525,0.09063986360824586,0.07571256408444091,0.4355322338830584,0.08791208791208792,0.10796062811290993,0.06852367688022284,0.6138203345259421,0.7002447361816905,0.08308999203610301,0.8367371896921227,0.23134615000389158,0.0984322400363358,0.003583181393330931,0.03898596000062332,0.5302183862881705,0.4701272142398728,0.6469354805463317,0.07470385334473281,0.09879140337422491,0.4146687416743132,0.014418327985058498,0.09792871606231918,0.33618915391125137,0.05500058771835557,0.7864196473003288,0.7724962984834777,0.9455346828937099,0.0965909081853693,0.6891218887429016,0.704888146331959,0.676582386692282,0.2587986775071349,0.4755513307116217,0.5244486692883783,0.06690325506576432,0.09005418303226354,0.6791260498086047,0.32087395019139553,0.10566099582002755,0.0777047439677977,0.6472677556623184,0.35273224433768163,0.09947917757264657,0.07940739085501164,0.8018847136184641,0.4985142002684767,0.19240650057849187,0.14965869747493205,0.16706542822150278,0.14889009204114784,0.10147239263803683,0.11070950468540831,0.8727245755599017,0.6775024217974028,0.008354334298297052,0.003434326532192013,0.00018975121203274484,0.05956800275676269,0.04497041420118343,0
53,0.34426631261277163,0.07407996493100938,0.4797156002943542,0.11785207122743228,0.07401846402646524,0.1184127332469197,0.07446833937229375,0.4287856071964019,0.10164835164835166,0.12613163132172997,0.08746518105849582,0.533656138246592,0.7519672131526144,0.11547650650384922,0.6725526982440243,0.19932903778352254,0.046510679106481344,0.0017863635903294613,0.07456297550867179,0.6914704740666837,0.30871580268202325,0.5345919809151964,0.0740184640281065,0.1380843167376593,0.31937702952068564,0.018050221782750484,0.1408176397244672,0.36838025615134473,0.10591073463416267,0.7268090916671844,0.7098979395076065,0.9134221843134129,0.10282258118926409,0.6167883825798657,0.6537003857594827,0.5787447190895065,0.5500269249314678,0.5239881524828012,0.4760118475171988,0.06947092255859455,0.0852444045564113,0.4712393086594491,0.5287606913405508,0.11873688974944413,0.13575204664455065,0.48557346613261065,0.5144265338673892,0.11019779419753267,0.12280714140057267,0.8728800240691545,0.5031688150698642,0.2803310197492699,0.151895624510977,0.18994152126700198,0.2831618841364375,0.46134969325153374,0.5033467202141901,0.8351427422597506,0.6738666601267917,0.14343311658729746,0.1157020768120384,0.028638166762325556,0.11924564948389017,0.21499013806706113,1
54,0.32938709205378514,0.07791546927905411,0.4964809488154077,0.12327122036294787,0.0778638567627935,0.1217350598161023,0.07711369456010853,0.4565217391304347,0.08241758241758244,0.09817251384660683,0.07465181058495823,0.5477484072978468,0.755225930046682,0.1335280063711176,0.6819004524516614,0.2142914236416668,0.042007875503610355,0.0013453264932291008,0.0893014833598872,0.7318548668238193,0.2684722826826631,0.5194955942936089,0.07786385676228247,0.14524468802240442,0.3206274664291279,0.01950320403092104,0.1401238188701678,0.3796544235591024,0.11048318348773306,0.7936686668980698,0.7719440457199734,0.9276944055954246,0.14912280796820174,0.6454134162253471,0.6722737811827189,0.6204124735063137,0.3580403836735164,0.530052903812457,0.46994709618754293,0.07332477313455739,0.08909842594021669,0.7495033475062953,0.2504966524937047,0.16010844700966764,0.1083759428991529,0.7231360349708579,0.27686396502914185,0.14323914412961158,0.10230887421532606,0.8285646149529897,0.38154824335804205,0.2156948018183172,0.167500801828391,0.18223498943119187,0.22252301028695184,0.17791411042944785,0.23427041499330656,0.6378020073313267,0.298803816016971,0.04562404629065625,0.02603404619863423,0.00572987732825636,0.09418417054336418,0.10019723865877712,1
55,0.32402371650805906,0.06603646609066294,0.5026969196085899,0.09242441323346777,0.06610442239388,0.09018042926904105,0.06465830035240938,0.45464767616191903,0.09478021978021982,0.11357403553735851,0.07688022284122564,0.5798890620732438,0.5914754098512204,0.0666312715688877,0.5938523950989764,0.30804307159942185,0.05794429232585709,0.0010594691154788669,0.09346408698173328,0.7418346807496147,0.25881882003986834,0.567333709097011,0.06610442240744505,0.10543220303218333,0.35662630172155313,0.01364397897342242,0.12184061051194864,0.32841009519610154,0.07222296997144786,0.6969580428860583,0.6992914546098453,0.9106052991566003,0.10897435844310896,0.7300898508106584,0.7340530913610277,0.731721461625952,0.24431302825172407,0.4497051134048612,0.5502948865951389,0.05784344591581335,0.0818398558034435,0.7376432182575843,0.26235678174241583,0.11794576354260358,0.07713174656271535,0.6954694672554946,0.3045305327445054,0.10629485702636371,0.0768793898471066,0.6101179914937691,0.5004014045442823,0.2536242283498856,0.18478371853306796,0.20288700422146932,0.1597184623714131,0.16073619631901842,0.17536813922356093,0.18555127439383823,0.1018779659354269,0.22176873750313053,0.1470443455652334,0.1072604316899348,0.1078113497172752,0.11301775147928993,1
56,0.4002812963092668,0.05742797265560935,0.4204202378282954,0.06256151495048183,0.057401385410491265,0.06780022227752741,0.06128639703299473,0.38230884557721134,0.06181318681318683,0.08237019464192202,0.05403899721448468,0.5813567739607453,0.760883424518466,0.051765330501725514,0.8212669682811982,0.1969424281615665,0.10825567462277427,0.0058537057080327885,0.029130932378724772,0.45452834059008296,0.5449951006927837,0.6613021890218632,0.057401385413433655,0.0662366564485815,0.4290797320515003,0.00908370600799601,0.09283127491322471,0.27296623601940895,0.034201554302478454,0.6989090921691562,0.6831937825344226,0.8853627190481486,0.03483606639677254,0.7205184163608607,0.7276569376695421,0.7181210767387172,0.2650828066205233,0.49742539376700234,0.5025746062329977,0.05308106954587978,0.06811747826071568,0.7277517716655116,0.27224822833448836,0.0770586320748739,0.04564219887415369,0.6893328615575578,0.31066713844244204,0.07354653368956571,0.0499943809956365,0.7791999671416261,0.5502871976878031,0.286094944486748,0.2300352896898324,0.25224551254176086,0.33297238765565784,0.2883435582822086,0.3145917001338688,0.36571140805977487,0.23523623254159973,0.09651642514149139,0.05369138745267327,0.016091760057223174,0.1635731403599455,0.15522682445759367,0
57,0.3845741594958849,0.08304342149916638,0.4369094145060498,0.13785774272882217,0.08299974959063275,0.14492589212459794,0.0872511182781589,0.4047976011994002,0.16071428571428575,0.20534129884992813,0.14178272980501394,0.5988131767462279,0.7400156959025631,0.10061056543668703,0.5520361991193464,0.17321729961266097,0.030735730803200297,0.0014024979687791476,0.09856053823763387,0.752437726153816,0.2475567795669192,0.4735202039162235,0.08299974959261422,0.16380073022569197,0.3067866587635946,0.022452857135729924,0.14805142960811352,0.40037453093022735,0.12943781544505067,0.6549274662153451,0.6496101423306967,0.8629308345194289,0.07589285779743302,0.6916489663382457,0.7065462383511381,0.6801182466635485,0.5519200448226997,0.6064636969060756,0.3935363030939244,0.08313307136587204,0.08772294491890326,0.6024873809218668,0.3975126190781333,0.15989348449220164,0.14405116907735835,0.609636104680394,0.39036389531960597,0.14573301016928106,0.12982206361765558,0.8197505781733059,0.44734748510461375,0.31042919879367614,0.21054372291908668,0.237037114649728,0.2788305360043314,0.31165644171779144,0.34002677376171353,0.4777034755485807,0.3382545891528001,0.2001231061254444,0.15293545579499485,0.049543328764625826,0.13005341227699202,0.15877712031558186,0
58,0.2672883123185599,0.08623623161303122,0.5705045420135461,0.10497590959738133,0.0866289616418092,0.09530501729072452,0.07979034331650958,0.507496251874063,0.12087912087912091,0.13664172367726016,0.09526462395543178,0.5840135182199641,0.7275887114137557,0.0682240509689408,0.5291736127676467,0.37418318699895897,0.06249561886990781,0.0005016388611834104,0.10580805746721501,0.7675112215950772,0.2333169750827779,0.5786404235196188,0.08662896164230455,0.11699812613383416,0.418466541155312,0.018245687519774536,0.0965569490179278,0.3699435143499499,0.06456179684828212,0.5069159959399502,0.5292640178649471,0.8117326052438818,0.0,0.6874277569769744,0.7047734521596081,0.672375382830452,0.395410816613174,0.4310502066371431,0.5689497933628569,0.07390255000398945,0.1081483650896864,0.6848513479997586,0.31514865200024156,0.12433027710771305,0.09272201982324174,0.6412415642337554,0.3587584357662445,0.1157914826214047,0.09526906289096737,0.31200262981771926,0.6649382006648434,0.17633232024220205,0.19886567847856135,0.19045647461735316,0.48456957227937203,0.25030674846625767,0.3641231593038822,0.23762009048996527,0.1906061850866329,0.02869280610976081,0.01410103538922896,0.001765877735457585,0.4940713938881318,0.3629191321499014,1
59,0.31500150650506287,0.09418744278303455,0.5131133595250513,0.14505457385742132,0.09459994709169944,0.14120059999142578,0.09216646206188242,0.4565217391304347,0.18131868131868134,0.21912869220191578,0.15208913649025071,0.5115568563655366,0.6666424569061168,0.08972657286965757,0.6265637477306844,0.33719508569380324,0.03563334398218604,0.0008797873351787198,0.167679773190831,0.8487614825100834,0.15155500095309007,0.4952074016400819,0.09459994708930464,0.17081176894076366,0.33460589637933547,0.0257775467985951,0.13265033688646377,0.42092927251493384,0.12271976120307965,0.4780207136544602,0.5007047214489263,0.7350194141136421,0.0,0.6248038396216744,0.658499000641465,0.5914695756505015,0.33580343194924334,0.48390110835426214,0.5160988916457377,0.08486342392455715,0.11275016230689647,0.5192667794514627,0.4807332205485373,0.1544767838386596,0.16148887708167792,0.520431227599823,0.479568772400177,0.14206815972447,0.1484754328406579,0.4235747545528665,0.490539468253815,0.2301094592294898,0.2276794551295539,0.22656677698882066,0.5863562533838658,0.7852760736196319,0.7617135207496654,0.2963292616752745,0.28380706551728363,0.0885577743549503,0.051395416105655414,0.01063725609299669,0.6225114734583275,0.7988165680473372,1
60,0.434286501506282,0.08140542572193739,0.38699659770343164,0.1102368314340298,0.08131692226553099,0.12276095841259882,0.08993578216491041,0.34557721139430286,0.11813186813186814,0.16271319246504157,0.09470752089136492,0.6513177062728146,0.7519672131526144,0.09928324926997611,0.6751918158547408,0.7204994583098373,0.05176285267687956,0.0021947312728297953,0.25019388831507783,0.9027022824020706,0.09731699902584393,0.5505047963601393,0.08131692227304751,0.12531512599419697,0.37546997014446015,0.018165292236493585,0.11341425550485473,0.3693023742644639,0.07979476084300294,0.3438181819962345,0.3358804444128983,0.551734041676624,0.052469135782793205,0.6711931933324808,0.691820553293738,0.653095758098547,0.3582564378503852,0.5187244005095942,0.48127559949040577,0.07566649282562578,0.09404690883483657,0.6482277412476598,0.3517722587523402,0.12855662929480394,0.10409330208090806,0.6337436978510801,0.36625630214891974,0.11954102604205419,0.10017815476020173,0.8676430557075145,0.5275526491566203,0.6326219916799227,0.6556447597230541,0.6374964093571415,0.17920952896589068,0.40490797546012275,0.4056224899598394,0.7046740136086289,0.549887493715589,0.19135466329042292,0.21693385148828764,0.035477352239004674,0.07115893676675594,0.16410256410256407,0
61,0.4459459102472607,0.0847282241855711,0.37566642518210125,0.11452105118843815,0.08484857311152529,0.12903714933000493,0.09466135010240631,0.33208395802098944,0.09340659340659342,0.13209914489794447,0.09080779944289694,0.5431962653436301,0.6583469946136319,0.10432705070347759,0.4977375565340595,0.6991030040320356,0.020060655577678287,0.001312657078629074,0.6080924660869751,0.9772454181770406,0.022653496631220356,0.4118281652417375,0.0848485731122264,0.13040318939518852,0.3782438543608961,0.019344045628137675,0.11223194836992031,0.37845713262496017,0.08218678194098641,0.2550454544530041,0.2667104889529477,0.4283184806977267,0.0,0.6069363132588439,0.6439696788576255,0.5706509158932787,0.5732311644493286,0.6066105908720253,0.3933894091279747,0.08490835145971634,0.08970527359190242,0.5808625549934187,0.41913744500658123,0.1256345002677727,0.11630586162790083,0.5964744497302296,0.4035255502697703,0.12024904314145651,0.10854917143552584,0.594972536783043,0.3584579690203039,0.7866919309193329,0.7992742396780121,0.7907303662014882,0.41959935029778017,0.445398773006135,0.48594377510040165,0.3168710303285824,0.1857089428701058,0.16934565141254326,0.15056651030307613,0.029948630683864653,0.32490641103958146,0.37080867850098614,0
62,0.4457895361745041,0.08581853387194374,0.37563437084848983,0.11706017345092386,0.08603719661900937,0.1318186143930772,0.09587079681836061,0.33283358320839584,0.12637362637362637,0.17649206376354643,0.09192200557103064,0.6692098128084036,0.8260403532119466,0.09158481550305284,0.564102564005569,0.16115088210657086,0.06948761907687143,0.0035586793323809113,0.0385677469500504,0.5270569252947169,0.4726597262171356,0.594531188749149,0.08603719661878353,0.1304816408866476,0.3828572634728851,0.01957462223984653,0.1102967449425474,0.38018880655733533,0.08099517990287088,0.5339060934987149,0.5260186421077774,0.7421555247546481,0.1328125000830078,0.5448708596631393,0.6044530924721372,0.4782629981682116,0.6202932206789162,0.49013803320970994,0.5098619667902902,0.0778918282432588,0.10219756263140789,0.5678678870224507,0.4321321129775493,0.12414882827354626,0.11783550957647251,0.5624885604078748,0.4375114395921252,0.11688228593028122,0.11253663130497293,0.4037783843637585,0.7777446161676871,0.7717773972734022,0.7706051596187067,0.7539067009605843,0.4152680021656741,0.4208588957055215,0.4591700133868809,0.2986364044487646,0.2514592095743768,0.19867581160970185,0.13167379835881246,0.0865224826446202,0.429851354103034,0.4635108481262327,0
63,0.6300592711527073,0.07396241311737851,0.21934787589830063,0.20022398468971825,0.07375912215300102,0.2611563152713205,0.09820801214254846,0.21739130434782605,0.1318681318681319,0.2127670405725871,0.10947075208913651,0.39873148299972017,0.5831381733077458,0.2150252190071675,0.603140803858653,0.14302357045535669,0.005051681086838398,0.0007466594706836107,0.42173405407771725,0.952498151925668,0.046968607909667434,0.22877690296812547,0.07375912217237718,0.23973540915153518,0.1878731485686927,0.027651470313067722,0.24950348711722423,0.4314576018457976,0.2845835921702877,0.23972845489009376,0.21853887606641897,0.4737867855259541,0.05182926853239328,0.3922816134020697,0.444938237063391,0.34513572593494546,0.7935881435087899,0.33582410852681355,0.6641758914731865,0.05648464442200063,0.1000942551157239,0.454895442323621,0.5451045576763788,0.20388910600097798,0.23749950654881583,0.4457981405279505,0.5542018594720495,0.17435665084358537,0.20670622404001357,0.652234282748527,0.2446099127115336,1.0,0.9654938431557828,0.9625348072690539,0.668651867893882,0.9042944785276075,0.925033467202142,0.41494216527886757,0.31076872141359396,0.33383663276818426,0.34047355740889274,0.0252002157410881,0.4533464906097771,0.6291913214990137,1
64,0.4129408338118059,0.10971944750209076,0.4081620920187027,0.1562347260091414,0.10960521458775868,0.16895041420662607,0.11859494831236303,0.36056971514242886,0.13736263736263737,0.18505184759997917,0.1136490250696379,0.6684697900310713,0.7752058452903284,0.1422882930714096,0.774528197641202,0.5849855713302915,0.034636979498948214,0.0009124567497787464,0.30111047762895327,0.9230957563312684,0.0770757809255297,0.49103724919246794,0.1096052145738235,0.1801521091327271,0.367820596616862,0.030334468120310664,0.11674996208812263,0.44542921680995406,0.11639417630881399,0.27863019316203064,0.27183913014733185,0.41266406339938166,0.06159420241349637,0.6764620894576865,0.6938436348838701,0.663764418881271,0.5464706260820349,0.7006411985306401,0.2993588014693599,0.1158579776345762,0.10448998598727521,0.5247166744209419,0.47528332557905806,0.16372009723224046,0.16962100180999531,0.5677767308988682,0.4322232691011319,0.15894117496379703,0.1531821662188665,0.9043824615855733,0.3920703549903012,0.5969109630844123,0.6317261530696058,0.6151213943588428,0.14889009204114784,0.16932515337423312,0.1847389558232932,0.3268452262444322,0.194191364912754,0.04723943284639293,0.026435253379542514,0.005828856395254846,0.05956800275676269,0.07495069033530571,0
65,0.5017056329308764,0.07759160567612391,0.32521421009324947,0.12706409056441476,0.07750828343845913,0.15091863110848508,0.0914970684850114,0.2848575712143929,0.12225274725274728,0.18165678803804242,0.10919220055710308,0.5418333900276987,0.6932157493752863,0.0937085213697903,0.844877596044622,0.5567271238414346,0.029811985256602527,0.0014515020906791876,0.33146948549538374,0.9323231440271406,0.0676410133212685,0.4690617420148945,0.07750828343087562,0.1502100468250881,0.31034142295648953,0.01992042331707315,0.14596216350424418,0.38275154258649846,0.11807666553262777,0.26659496787701664,0.25375080773964187,0.35705447466965745,0.0,0.6567718073443456,0.6807339684375895,0.6350673427792675,0.5461824354421019,0.5672513395747826,0.43274866042521754,0.07542525227729807,0.0853978621826259,0.4976013633686447,0.5023986366313552,0.13296749070695768,0.1444914755854514,0.5140385662220538,0.48596143377794615,0.1228341735395043,0.12973278655428577,0.8634645187114909,0.4085005484163363,0.6615514365897992,0.6797581597574895,0.6597088079030876,0.12723335138061723,0.2846625766871166,0.3105756358768407,0.4811739491960134,0.4163790143591127,0.2619094747318834,0.2143315110132509,0.15678396604826284,0.05377253575176605,0.1321499013806706,1
66,0.48627484399293963,0.08598725769265034,0.3385530908593445,0.1322927805846893,0.08589632683038388,0.15458136015050744,0.09976846759709926,0.2991004497751125,0.1098901098901099,0.16118967471163675,0.10167130919220058,0.5622765196521877,0.7519672131526144,0.1590124767719671,0.7696722216595653,0.3100449127197439,0.014315323872254072,0.0006323165195835172,0.3693361184051487,0.942144618204315,0.057871804728350795,0.36426710993531286,0.08589632683775678,0.15457466981602047,0.33303115526608795,0.022104450911061908,0.13346718032766888,0.3980610493089325,0.11227251132591942,0.29309090976659635,0.27381698054583603,0.373235191094864,0.0,0.635496298686185,0.6648804475830232,0.6086828603309717,0.514625585011161,0.6794554917924388,0.3205445082075612,0.09071627838649884,0.08331805915812251,0.4244217399520305,0.5755782600479693,0.12622335737040416,0.15730241850424612,0.4735758043907219,0.5264241956092781,0.12263169924080106,0.13953426871790856,0.9294337184530916,0.3941653875893696,0.750106019381582,0.7159378805059035,0.7055524644722752,0.1911207363291825,0.28588957055214725,0.3119143239625168,0.4001272637130554,0.19185080501771898,0.2828630516957772,0.1307822756109179,0.13144179307082438,0.08102689409958806,0.13353057199211044,1
67,0.4775802695568916,0.056875868904266824,0.34602454836906815,0.06301293440681766,0.05691886625992153,0.07581332033549834,0.06605181574410254,0.3148425787106447,0.07692307692307694,0.11267447446265835,0.06016713091922007,0.5188524926722353,0.7408988129636717,0.044066896734802234,0.6968325791476833,0.7934186538827988,0.03905691174864196,0.0024969233578800427,0.36408489884916945,0.9407387285427852,0.05910320734192907,0.508728283353601,0.05691886626182887,0.06625596463360657,0.42616777396287786,0.009023460092310831,0.09383804234048565,0.2720900419946013,0.034653849246562396,0.23011912268463164,0.22809326031739652,0.2989237520791562,0.0425000000265625,0.6356930605453868,0.6674668256050975,0.6034526068080202,0.5633952631189567,0.5969267260378786,0.40307327396212156,0.05788900069532918,0.060428671790622314,0.4205750763959639,0.5794249236040361,0.051722420294048124,0.0693481608536784,0.47230539307299346,0.5276946069270065,0.056605694223163604,0.06593039532800471,0.42543535310334396,0.3796811691286165,0.6780428115523209,0.728181073763068,0.7027458753582491,0.3492149431510557,0.32147239263803684,0.2918340026773762,0.4058424194159142,0.2784024720726907,0.20263044963264276,0.13454463852908638,0.08352873611160941,0.2277931801450433,0.18816568047337276,1
68,0.5561810912010996,0.04053714976350159,0.27798821315889455,0.06414712565868236,0.040475077202387855,0.0848506368376479,0.05199574366752447,0.2496251874062968,0.06043956043956046,0.10033163047150193,0.043454038997214485,0.3145179941061862,0.5220088084054907,0.08999203610299975,0.8783603939070572,0.2255211482817552,0.02826020174065894,0.0008634526278787063,0.14020479474705672,0.8194872044269129,0.18077734357875497,0.46126695441284393,0.040475077206309724,0.07224810423311236,0.312343877853548,0.00730349861501289,0.1448017767886748,0.2448327358120468,0.06130840044544565,0.45890095068537307,0.4264505525493717,0.6228805292326636,0.05985915478741196,0.548708185437194,0.5949717920503259,0.5040259090415895,0.3596463860007906,0.38693788854799416,0.613062111452006,0.03306523434259616,0.054398539399798,0.5141376946864432,0.4858623053135567,0.06536270535114036,0.06828755226078437,0.5004048243796202,0.49959517562037964,0.05877562068926518,0.06381382738461874,0.8760836329664556,0.4422280945511464,0.8396433926152027,0.8768200675785683,0.859546313596255,0.7325392528424473,0.739877300613497,0.7630522088353414,0.5882199085731239,0.47219837892852323,0.253298690865909,0.2402991824632508,0.06161763694476115,0.35779960214902184,0.3767258382642998,0
69,0.44773048958898554,0.09823430733189928,0.37425391614995795,0.13651652906634598,0.0981658905422918,0.1533222154623358,0.10975674739817942,0.323088455772114,0.12637362637362637,0.17864700833905672,0.12590529247910864,0.5942383668775303,0.7389323458973277,0.09769046986992302,0.5184766214560104,1.0,0.029893941215446095,0.0018598697731795216,0.5955475471538582,0.9760638677525316,0.023842599015427964,0.46946259744555896,0.09816589054218863,0.15650480269442052,0.373385520423581,0.024897492292292267,0.11431215741562664,0.4157376913501325,0.09974819346657268,0.28382095062483503,0.27794221252263773,0.306852764520959,0.0674603180421627,0.6871091209747835,0.704246948416059,0.672393592672115,0.5027041079853869,0.536862961318117,0.46313703868188305,0.09220185494793737,0.11148968405257939,0.5464630545268213,0.4535369454731787,0.14538835178079726,0.14454416861167343,0.5542002668112982,0.44579973318870164,0.13741469304361692,0.1350928911262895,0.782359031651956,0.42284486442004343,0.5530164118102665,0.6168776607013146,0.5896988020904322,0.34813210611802925,0.34969325153374237,0.3815261044176707,0.5383176986348429,0.37137036946205443,0.042977336548897814,0.023111772212760673,0.0036343806907708875,0.16200679792616263,0.178698224852071,0
70,0.6308207818125076,0.04835651185475831,0.22098381588682903,0.11408235862146864,0.04850032968568789,0.1539453743217672,0.06591892223169701,0.194152923538231,0.11813186813186814,0.19833106951870072,0.09944289693593317,0.3421197396179501,0.5636979823690936,0.08123174940270775,0.6873518637092841,0.30177271796058497,0.010696932025612255,0.0013779959078291273,0.468108773234051,0.96029024020712,0.03923920590749072,0.3243681171256101,0.04850032969449294,0.14182597768047855,0.21493522445560126,0.013367384101678108,0.21930482098707363,0.3255381015005929,0.1616365242919218,0.27992132881773046,0.2691199350296213,0.39427012230847835,0.0,0.720225924462321,0.7284971112703054,0.7156257868845728,0.629709148526846,0.5989442129665768,0.40105578703342304,0.05004348702388885,0.05119196322945483,0.3904638086515595,0.6095361913484404,0.1106773773949569,0.1482385768646279,0.41112300792153333,0.5888769920784664,0.09858630649042949,0.12725537613291157,0.44103279710065874,0.3044935792963984,0.9396631327988207,0.9999999999999999,0.9768666238578277,0.9999999999999999,1.0,1.0,0.2864877947853108,0.2313215043347108,0.23241494450530506,0.19698156146739182,0.04198161052165247,1.0,1.0,1
71,0.6126497795129808,0.030599780798487068,0.2344788174713507,0.030638466435937498,0.030740143406158955,0.04924025409130187,0.04278674000411516,0.2132683658170914,0.017857142857142863,0.04262487551820662,0.0181058495821727,0.25855002315908143,0.5488959519045405,0.03318290416777276,0.6304675716761737,0.8008518297736055,0.04980481715565026,0.005241154184282288,0.28933337692097516,0.918270754574711,0.08112430225590007,0.5447639253173825,0.03074014340481914,0.03201241118246123,0.38773050078842713,0.0037728605398495924,0.10829371943617336,0.16832122112185433,0.020351336717187515,0.31172541742013693,0.3284656673286568,0.3416630615186449,0.06854838816784274,0.7030783972865402,0.7166076819583123,0.6922096315167092,0.4906597293550914,0.5238360199714419,0.4761639800285581,0.030522501412812073,0.03578531481428313,0.7351052554334919,0.2648947445665082,0.04260317246175144,0.016729798905620596,0.704688875785654,0.29531112421434597,0.04048626722112892,0.020150572552775588,0.42739288223079513,0.5284224024994567,0.9077684699928522,0.923023118043632,0.898015318030178,0.5094748240389821,0.6110429447852761,0.6666666666666666,0.2551090915478937,0.17358616080734754,0.3077814378541598,0.33385475089044475,0.07234611369652995,0.5426280093354009,0.6982248520710059,1
72,0.44965148829920265,0.03701492569269593,0.3721303330591549,0.06695987643994451,0.03697165514002247,0.0773996370497626,0.042069487624696734,0.3369565217391305,0.043956043956043966,0.06465410695256213,0.04094707520891366,0.2559882274731018,0.46054788605466446,0.07990443323599683,0.6881762737906874,0.2563775376163784,0.01199022930621017,0.0010513017618288601,0.35933933602420354,0.9394531145203996,0.06024521234988221,0.33984930697883997,0.036971655153821455,0.0806661045869622,0.2719965687509336,0.007350415534534589,0.17070551834972922,0.2456406224762684,0.07988639663335102,0.2410287077585227,0.22843943325626803,0.4147339690200619,0.031249999269531245,0.6890904672493536,0.705699349339449,0.6750271823440084,0.23566302651353155,0.46729516415789285,0.5327048358421071,0.033751084235072906,0.04590237829347101,0.7338314596323426,0.26616854036765736,0.09226454336905102,0.05706123015208783,0.705078632756327,0.29492136724367285,0.08014674733907112,0.05331085235517515,0.9238101349811356,0.4236556940903723,0.32896172259913636,0.2534933928045461,0.2666403596347287,0.20844612885760694,0.26993865030674846,0.29451137884872824,0.621667623096412,0.5587423820676631,0.08557816276731238,0.053168046300713465,0.02031683685851705,0.0829065050201275,0.11932938856015778,0
73,0.3805316478198435,0.054853461976192064,0.4409440089747113,0.11240628590685324,0.054957102902614796,0.11780386170424184,0.05718775147663804,0.4002998500749625,0.09615384615384616,0.12387469496832063,0.07353760445682453,0.42168517244684106,0.6224475122201923,0.09715954340323865,0.6092307691976887,0.2383514846008207,0.006577164619425968,0.0003872959100833168,0.5629126393651096,0.972788525336525,0.027170576692883266,0.2610024594123348,0.05495710289959475,0.136682490095613,0.24750320185944563,0.014242847875060364,0.18951288208731257,0.33445882058645315,0.1370708145327279,0.2410287077585227,0.2542860169435882,0.41957087859701037,0.0,0.7453431932170229,0.7496332080399266,0.7439571595437218,0.08260392353873725,0.5326584203259638,0.4673415796740362,0.052785476607319054,0.06287820289629298,0.6494564488028131,0.35054355119718694,0.13978609792374783,0.1139264710048285,0.6397785280134131,0.3602214719865869,0.12221035940130809,0.1013884015702266,0.5178179992099967,0.3457265447141883,0.2908450456434317,0.1970577805138417,0.2223064459417592,0.08283703302652952,0.25398773006134967,0.20883534136546186,0.032842626317042795,0.025790609557209597,0.24526578489578435,0.2452580401482491,0.02840943003264663,0.07225537647040396,0.15897435897435896,0
74,0.3916518071687347,0.07543686038748156,0.4294050465706175,0.09981343688882478,0.07572136100178156,0.10608798495195362,0.07981833236000155,0.39505247376311836,0.08379120879120881,0.1088815437531816,0.07493036211699164,0.42915846656563233,0.6810522303171719,0.07857711706928591,0.516698987211763,0.27971025167643637,0.02911766569600364,0.0009124567497787464,0.1693337019258041,0.8501869446682097,0.1500276515592422,0.4656230419988796,0.07572136100087146,0.11323405307852226,0.38056372972416874,0.015976363872582215,0.11125401037985766,0.3507903208725296,0.07105043572392775,0.25593023269589943,0.27794221252263773,0.40654843005712016,0.0,0.7402395510298061,0.7444126902853072,0.7397471681514407,0.3778792328337901,0.47914194423901046,0.5208580557609896,0.0680449436192251,0.09097994025273157,0.5165040697882526,0.4834959302117474,0.10237095837201204,0.10708608522981264,0.5185031070361005,0.48149689296389947,0.09735497229036322,0.10174615113471835,0.33624131285891884,0.31171188828794527,0.26532768035052456,0.19990924396849447,0.21367927757124533,0.11857065511640498,0.16809815950920245,0.18340026773761714,0.4871740819250393,0.3825673504923299,0.21554659593440245,0.2155385462217406,0.16244874556494227,0.1352223423084755,0.18520710059171594,0
75,0.8847876232492793,0.0016836440002451075,0.059152994432829065,0.18175908368541283,0.0014490509397318274,0.2863800867191047,0.01376175156646147,0.01836581709145424,0.08928571428571432,0.20218446133058915,0.08857938718662953,0.04132126260111065,0.0,0.11521104327050705,0.4717686404630713,0.0,0.0,0.00019209615784815715,0.06440389391586879,0.6546616397849793,0.3422490199800742,0.0,0.0014490509392820275,0.23287317141608888,0.0,0.006673917304234641,1.0,0.23358175834801198,1.0,0.4315934627265482,0.41108762028476564,0.5508185534092547,0.0,0.22010495356796955,0.3937592201112099,0.0,0.6749488943963629,0.3145312878479538,0.6854687121520463,0.0,0.00756623529037273,0.38691118791449886,0.613088812085501,0.18433452373725445,0.24128678352702806,0.38239439824202226,0.6176056017579779,0.1511654801629643,0.200697943676408,0.2426280306110215,0.03319874365839692,0.36526713675636235,0.30682773211494635,0.32906180715262306,0.6188413643746616,0.6785276073619633,0.7402945113788488,0.40766158782952905,0.3374851320032863,0.2353002508567194,0.1969094802924043,0.07792774052508661,0.4204532995003367,0.5029585798816568,1
76,0.4016919677617705,0.06208896954690199,0.4190701772886326,0.12499734250794907,0.062026322117708976,0.13402718364804944,0.06637123738896111,0.3710644677661169,0.12912087912087916,0.1719645162256636,0.10891364902506964,0.4738135225491242,0.6936065573482922,0.1011414919033714,0.7963800904544951,0.17060683313885366,0.006572658062706329,0.0005245074514034291,0.4052155137166703,0.9496797913567004,0.05014012911017961,0.2609166669472558,0.06202632212221316,0.1526306167761512,0.2498367902321082,0.016947763260594075,0.1876018374377628,0.3592682982597848,0.14940252565719772,0.3449710756882718,0.3313230910384062,0.5061984697269796,0.027960526892475326,0.6711720381730211,0.692363828873118,0.6519721606013302,0.22537869240543706,0.4634303571485108,0.5365696428514892,0.055167177562398306,0.07594136765005371,0.6962295342136517,0.30377046578634825,0.16121643780566164,0.1217242692082007,0.6734664753229853,0.3265335246770145,0.1398006080473923,0.10997067099695068,0.9022256229271017,0.37303441209373894,0.40463961134583015,0.27137772783706315,0.2939077521402748,0.11965349214943151,0.23680981595092027,0.29451137884872824,0.6073016579416851,0.4599407119471251,0.20956777499691667,0.10667302561357714,0.18153824832463675,0.04766380026001284,0.11972386587771201,0
77,0.33173205183195087,0.07232511715426024,0.4937296339239897,0.15965063972296378,0.07226850733856462,0.15859519285056284,0.0716470182232084,0.43140929535232375,0.13324175824175827,0.16509849743938,0.11977715877437328,0.5622765196521877,0.6352459017044619,0.12715688877090525,0.7121475809025077,0.2657791675476152,0.0035932889174144543,0.00019454636394315917,0.9999999999999999,0.9999999999999999,0.0,0.1899595776689258,0.07226850734462512,0.19568071934690506,0.227761166432639,0.023100482862122525,0.20682754116617405,0.40458881326431717,0.20235771988116702,0.2792561991585132,0.25957004612607393,0.3246930418192444,0.036637930397898706,0.6175395270100728,0.6547886476012457,0.5788363778845604,0.3708304515396814,0.5134027797851712,0.48659722021482876,0.06722651144327806,0.08411613352061464,0.5768160174512426,0.42318398254875733,0.1861189917226274,0.17671226358405,0.5726068292673994,0.4273931707326006,0.16229173429844565,0.15520391196033986,0.8342747337879599,0.368805783969286,0.24065174854645713,0.1639302634629045,0.17335397849625045,0.0642122360584732,0.07104294478527608,0.03868808567603748,0.8037484238428175,0.631166386678275,0.20125682393186298,0.11990089374757483,0.12233369971570454,0.02745798286421377,0.01650887573964497,1
78,0.3849663509132637,0.04454697864699422,0.43613135722598917,0.08617279060364717,0.044514863081060105,0.09100475776379868,0.04659713676014527,0.3838080959520239,0.07967032967032968,0.10529394114622412,0.07910863509749305,0.4142882060232204,0.665849660138136,0.06344571276878153,0.6289592759658483,0.26852423202410214,0.008132067517598932,0.0004264992076033489,0.5297478321363921,0.9690369917052327,0.03094320660852029,0.2880828302451264,0.04451486308615466,0.10471708642191381,0.2587645109551159,0.0100537587172585,0.18053134674023372,0.2864569936869654,0.10460656990017952,0.27082039878236486,0.25809208816335083,0.31588581633517365,0.0,0.67540810248811,0.6955856707041446,0.6573371793109533,0.284458457514853,0.4676668146226546,0.5323331853773454,0.040284697064520064,0.054840655892502206,0.6388545037574166,0.3611454962425835,0.10752960048323273,0.08696465967921577,0.6224042466886809,0.37759575331131906,0.09375291564542235,0.07854061238927754,0.8697784779651243,0.4561469755970433,0.2558979460470472,0.16566635576198385,0.18221034936903963,0.00173253925284245,0.10711656441717791,0.07791164658634539,0.0,0.0,0.4528295199916751,0.4528239051710646,0.0,0.0014097081904045853,0.03333333333333333,1
79,0.32242473528234505,0.06469318685467094,0.5040876490633833,0.13910243528028643,0.06473116284675834,0.13654031513743828,0.06321127579899966,0.4572713643178411,0.11263736263736267,0.13500626450021966,0.09498607242339835,0.5534702484416597,0.6408575032241083,0.13193522697106452,0.7797888386363916,0.12731272475370467,0.003224328668983755,0.00024355048584319926,0.5254497904045532,0.9684672700431612,0.031461612999007516,0.1783538146475272,0.06473116285275005,0.16905946101157915,0.23640680044129364,0.018932377109985216,0.1989817637562483,0.375318515411869,0.17207787051781961,0.32820979001417805,0.33665481144642795,0.4638472027977122,0.04722222177951388,0.5587854804820256,0.6130911961937466,0.49957864052419154,0.49660474786286946,0.44911347695272175,0.5508865230472784,0.056661168052419,0.08026794105148738,0.5041672534093279,0.4958327465906721,0.1506549810571527,0.16176803981578639,0.5006518915206393,0.4993481084793607,0.1317223116999754,0.1425833712116864,0.6634836132987161,0.3970881298034009,0.20321653920141255,0.18050049242609845,0.1832996983709851,0.1120736329182458,0.16073619631901842,0.11700133868808567,0.684003419724314,0.5371347377714559,0.10529131624363182,0.1115636403746469,0.014288157919217637,0.0778942092320223,0.07534516765285997,1
80,0.43219153553557876,0.0740996482970885,0.38834117248418754,0.1284287370658126,0.07402720004154023,0.1422784779238795,0.0818063876806206,0.348575712143928,0.13461538461538464,0.1840712103579925,0.1136490250696379,0.49730051857376223,0.6738901197327162,0.12211308733740378,0.7846686186180272,0.5703917315984139,0.027114247740308597,0.0011901467738789737,0.3722370471111593,0.9428086135725363,0.05719671754706361,0.4552448310819792,0.07402720004173716,0.15126870362151795,0.2957522674412005,0.019306994531410302,0.15478635063645482,0.3781771331701629,0.12507099623862214,0.2313955781212378,0.21919166155020164,0.2837653470045358,0.03863636327414772,0.5618549245517368,0.6128150697535224,0.5079063757556654,0.41244149754720816,0.47087150622728213,0.5291284937727178,0.06603865483495458,0.0896822660120353,0.6090481288925133,0.39095187110748686,0.1488517750132643,0.13189370618786328,0.5951334100338116,0.40486658996618824,0.13256098214581674,0.1206581044622396,0.6724982344103021,0.3647281472961598,0.2583789300990331,0.219611393687066,0.2248455707133583,0.33297238765565784,0.4932515337423313,0.49397590361445787,0.5502984451184997,0.4476431926034015,0.1121195260947355,0.07074371790302775,0.023096828779571008,0.1635731403599455,0.2445759368836292,0
81,0.3539739956831456,0.0788794294637556,0.4691276026586676,0.1622149186809846,0.0788144703193929,0.16506470365940124,0.08022548488526435,0.42466266866566726,0.16895604395604397,0.2111803963506234,0.14401114206128135,0.5311674094784886,0.7502227370646627,0.14096097690469872,0.8114630467613686,0.0877957101956138,0.005324517888738171,0.00025090110412820523,0.25205377860185835,0.903597427789201,0.09645535464240201,0.23506096577078983,0.07881447033697458,0.19690776266340676,0.24624396691710282,0.02483910199024262,0.19055534914465802,0.41538726516179314,0.18965167741724143,0.3600839925847795,0.3398206877194123,0.5144487153747763,0.07083333266927082,0.5762840094950916,0.6208558745498107,0.5315388670695911,0.43713598527350683,0.4756187948749758,0.5243812051250242,0.07050799289973121,0.09494180669063146,0.5871439366732317,0.4128560633267683,0.18890055494844038,0.1762955991263333,0.5777837375744895,0.4222162624255104,0.16524115775770748,0.15670609389695456,0.7931184234646187,0.3439700152530418,0.3177657515547706,0.2691109388788721,0.2922931733482974,0.34813210611802925,0.4674846625766871,0.5100401606425703,0.5502633109645886,0.31291001949700187,0.09053640733268979,0.045889339485618935,0.020503967343218743,0.16200679792616263,0.23865877712031555,0
82,0.4695914549922542,0.042158967998456934,0.35285647701349954,0.16485929589272003,0.04215363603675551,0.18842792019791976,0.04896394841474414,0.3440779610194903,0.13461538461538464,0.18507685221444375,0.13036211699164346,0.3345444525342036,0.4862065927114093,0.09185027873639501,0.36263736253234546,0.12243893871073266,0.007374550540501978,0.0005163400977534223,0.2657952947125208,0.9094527728396976,0.09036630257764416,0.27548621084543923,0.042153636040536215,0.20759533461911472,0.12651139086222452,0.016449506477855858,0.3468331156520924,0.3549752977407943,0.3369012311877132,0.31272727446214543,0.3026936021558224,0.41871612416320014,0.0,0.40749163486908424,0.4894545586773058,0.3238700558057288,0.514625585011161,0.3712283109978646,0.6287716890021354,0.03377007619033372,0.05752428219555677,0.6040555854388461,0.3959444145611538,0.20170803377496865,0.18340053201891296,0.590562620370817,0.409437379629183,0.16891114089773882,0.15680784722872296,0.5692762827281683,0.3024988412524339,0.40048599034993915,0.31044603612206517,0.34329984270840164,0.48456957227937203,0.6662576687116565,0.7269076305220884,0.2301755536557087,0.18718961140881166,0.6271872090335664,0.7367932699566038,0.13507078280235385,0.4940713938881318,0.7278106508875739,1
83,0.4849681330224753,0.039378995137152276,0.33992024599790727,0.12089465948966631,0.0394878856606162,0.1415370640427031,0.04661944940594664,0.31146926536731645,0.18681318681318687,0.2644000904405398,0.1426183844011142,0.3587538074091779,0.5379781421375861,0.06556941863551899,0.6444391520917047,0.09106123857239518,0.009237863872680366,0.0003881126454483175,0.16360452409427073,0.8447501275084516,0.15535181775415896,0.30478973802904774,0.039487885676322824,0.14973426008552987,0.1711629389956233,0.012089657524279688,0.27135790133788706,0.31156529513331055,0.2056688345948672,0.3184545458814153,0.30866807482422487,0.4020009096479672,0.08854166743033852,0.8357469792132477,0.8036856724688224,0.8845241102167343,0.4879050336019395,0.6306076460194293,0.3693923539805706,0.04287495910829145,0.03963035857449033,0.5750382581312882,0.4249617418687117,0.1429723037390487,0.1347331564683785,0.5785750352709875,0.4214249647290124,0.12263724561497341,0.11472425087196289,0.3926368494016403,0.40822978665479703,0.2894280203220324,0.22697111152729665,0.24397120707575198,0.5863562533838658,0.6110429447852761,0.6666666666666666,0.2235000644126155,0.16931429412269622,0.06693116062783562,0.07318158029216294,0.007522917407454528,0.6225114734583275,0.6982248520710059,1
84,0.2632027219271087,0.04633338557781856,0.5751635264691194,0.12296881130035552,0.04629872010045255,0.11190710819632316,0.04111134814845197,0.5239880059970016,0.08791208791208792,0.09566404048351088,0.08467966573816157,0.44895724299067663,0.6004368810290456,0.1069816830368994,0.6352079291962783,0.19454474915406575,0.0044636036009049985,5.790653737854738e-05,0.6270629040113496,0.9791983297281245,0.020953302438813395,0.21428594656334088,0.04629872010711802,0.15353342231916184,0.19156022790266974,0.013748943977463141,0.2450391772325536,0.3294867649356006,0.1911372425857099,0.41128288083450737,0.40360311407997995,0.5826754744997905,0.2965116286853197,0.6139174596760659,0.6497295097110041,0.5784536886335512,0.6457618304349211,0.5545312309968544,0.4454687690031456,0.04594917847456784,0.05166000436575916,0.46920236266507065,0.5307976373349292,0.13188050294223608,0.15105346447801277,0.47650089673248297,0.5234991032675171,0.1143938667212738,0.12961353531864392,0.8194907003637575,0.33216007040821016,0.4443375307186763,0.46997374504700956,0.4598869089839993,0.47698971304818627,0.5398773006134969,0.5890227576974565,0.5959220958693946,0.47377714558987627,0.12564279989657745,0.125237285525208,0.01670968183107327,0.19020096173425435,0.23865877712031555,0
85,0.32302803574794225,0.02700887586133375,0.5038448202323492,0.036757107480259815,0.027114162847707516,0.03458745302114962,0.025234622406084796,0.4550224887556221,0.021978021978021983,0.02437822178357485,0.028969359331476326,0.29445276708192447,0.4103699804333032,0.03159012476771967,0.6877828054830163,0.3679482124522834,0.05099190052756218,0.0018353677122295016,0.12797851554273726,0.8032777220604487,0.1968904125868162,0.5482700131088073,0.02711416286038317,0.04214495235329077,0.3205234903850848,0.003950529981987013,0.14018134796352033,0.1731720554115297,0.03802741099413995,0.5737197676199156,0.5735709618537402,0.6786816970619733,0.21250000013281248,0.6325913047241518,0.6634030672718592,0.6028039579178337,0.40599530513546034,0.4919879353493878,0.5080120646506123,0.026129518528525627,0.03308991865320129,0.7032128865114717,0.29678711348852826,0.05097538978411932,0.027332500460511153,0.6776870924053899,0.3223129075946099,0.045735199663341185,0.027549522952810594,0.5882473069574261,0.5314017872934735,0.4607984617101193,0.49194497016003175,0.4789909806937227,0.41959935029778017,0.445398773006135,0.48594377510040165,0.31241289657676224,0.22655148312099177,0.13102601065056366,0.14096546941658494,0.020397381131450586,0.32490641103958146,0.37080867850098614,0
86,0.3073256724085036,0.034835504048766924,0.5212052410945552,0.10838576885447103,0.035053012639759434,0.10396937912163118,0.03235285825004552,0.48125937031484256,0.13736263736263737,0.1607557341210268,0.12033426183844012,0.38560749857769794,0.4389091276925867,0.06955136713565171,0.5972850678408714,0.1474328478648342,0.003002401875026155,0.00016187694934313243,0.6362908905084949,0.9798673056627732,0.020148645965976167,0.1709242278221743,0.03505301263572253,0.13668517910363687,0.16963942335530868,0.010406638313118883,0.27349405567428786,0.2910980126586218,0.19251818941821938,0.0,0.007243468259627184,0.3246930418192444,0.0,0.7115865111091351,0.7200258055463509,0.708353937810601,0.3674934339989808,0.4912264226024352,0.5087735773975648,0.033085590747749735,0.04241040667773555,0.5851431103871348,0.41485688961286504,0.13204310812064615,0.12156384243599602,0.5782344186549037,0.4217655813450963,0.1119629011582346,0.1043299482120679,0.37506627393302,0.3832964396199253,0.454946378974426,0.5230449190002031,0.5003283222028911,0.7119653492149431,0.7570552147239263,0.7336010709504686,0.2687840850090373,0.18853539502887762,0.11647429366223656,0.11950848576168858,0.0037195824710686038,0.7227573892204314,0.7396449704142012,0
87,0.23304456560154985,0.06289517964972834,0.614011943179868,0.11882996202258507,0.06301328032957605,0.1037280333709324,0.054799914899483694,0.5483508245877061,0.14148351648351654,0.15377043426782958,0.10668523676880223,0.602445476012927,0.7773080242255438,0.07220599946907352,0.4579185520113347,0.044533533647860536,0.01071027565839931,0.00012757406401310437,0.07151837679531113,0.6823590542632796,0.3186315089480992,0.32453607245938443,0.06301328033783105,0.14370987602816243,0.26727634136648026,0.0163934925012905,0.17412555381196568,0.35448546957306437,0.1326039424701554,0.6214832540462635,0.6200417807569917,0.7735774318479243,0.05592105165995065,0.6010809677778655,0.6400280462887715,0.5621776539780399,0.3485764431147058,0.3997364479216706,0.6002635520783294,0.052127324443535544,0.08164437838803129,0.6609390863634682,0.3390609136365318,0.14804088213935607,0.11864894137033849,0.6328893965586379,0.367110603441362,0.12862874210458974,0.10867900620647827,0.6070743116998645,0.5212631428575532,0.5130816918395311,0.43892855076734755,0.5248027671919662,0.7682728749323228,0.7914110429447853,0.8634538152610441,0.3737649368951558,0.28786587534181063,0.11637500161117295,0.10254930932486737,0.010003249385292574,0.5206992152624407,0.5857988165680473,1
88,0.227321975188173,0.05555406970813405,0.6220994055970123,0.06990271289346604,0.0555256782621697,0.05780570975135053,0.047510248531272926,0.5697151424287855,0.0645604395604396,0.06362284752652345,0.057660167130919225,0.4899723982486497,0.6843917169581363,0.07008229360233609,0.602025425560071,0.17737220779073612,0.031082693421643253,0.0003244072869782654,0.0998445692212419,0.755730229116913,0.2450793134786637,0.4751618675883762,0.055525678265049415,0.07799227991367937,0.37904273247649367,0.009762839500741196,0.11189407554289077,0.2825280140771136,0.049781680730851915,0.6054641149668561,0.5845400751569073,0.7699863569503413,0.10450819706531761,0.6949981205561846,0.7104230326570677,0.6820903403005958,0.26465913455949286,0.4466715633612057,0.5533284366387942,0.04864316043975986,0.06930925832545251,0.6982806509854813,0.3017193490145188,0.08661552176035495,0.05809823767131361,0.6598549162787246,0.3401450837212752,0.0795070272674574,0.059502176764893826,0.6972745596443188,0.4526118787164236,0.42738570934231945,0.46630618765366244,0.4538446636488651,0.44775311315647,0.5067484662576688,0.5528781793842035,0.6870874176787254,0.5077436205564616,0.09994410101458041,0.07673665262496059,0.012399609038137877,0.17767022226399137,0.22485207100591714,0
89,0.2988186110007671,0.07240379369255744,0.5319166480797543,0.1425714846237202,0.0723538821578571,0.13617770936138657,0.06903862353311721,0.48200899550224896,0.09203296703296705,0.10623984953731283,0.0732590529247911,0.496688145559537,0.7051571038028773,0.14627024157154236,0.9344621222479024,0.23459775815122175,0.009366920390739029,0.000286020724823234,0.41000702891174295,0.9508887573643673,0.049224231250811615,0.30662603212538464,0.07235388216091762,0.1728246603036997,0.2569501996956621,0.020980928445132697,0.18193818866115782,0.3903666795613048,0.16223176512526818,0.36680397872332904,0.3600126099618953,0.5510281223587715,0.03728070252330044,0.7191895199552159,0.727541199309018,0.7150408884088804,0.34333278576237625,0.6966287504185038,0.3033712495814961,0.07827897371367214,0.06804113377504264,0.5581504365668687,0.4418495634331313,0.16205462911809598,0.15824007512530405,0.5781784337278966,0.4218215662721034,0.146066026332627,0.1377911963764946,0.8531667432175707,0.3459005385820829,0.3322038332245527,0.3409796698992584,0.3469682052523769,0.37736870600974554,0.4257668711656442,0.42570281124497994,0.5140790362311203,0.3666141432968326,0.07366523596894528,0.04605329644893843,0.011923535450239144,0.1588741130585969,0.1816568047337278,1
90,0.31642943205007823,0.03749557484397492,0.5111009346683083,0.05743644500612066,0.03747934060082428,0.05460830160369696,0.035468613531886815,0.46739130434782605,0.05082417582417584,0.05835696192945622,0.04484679665738162,0.3793421230768689,0.6510393781480078,0.05627820546854261,0.8717948717897668,0.19911944707942075,0.02070783233009283,0.000640483873233524,0.1674996091338643,0.8485207502748583,0.15170739296047528,0.41636572652029535,0.037479340616300726,0.06758780688899015,0.30797301480985795,0.006616201770069658,0.14734994419886288,0.23251004844725842,0.059092104950019236,0.5213636370826954,0.5123069347129622,0.6905106815909821,0.15454545522159088,0.6699942003590049,0.691371922309268,0.6506917569828143,0.3209015858994948,0.43766276525567904,0.562337234744321,0.032894072925516174,0.048042101018620643,0.7639618564627187,0.23603814353728136,0.0811577109014037,0.04361505728339091,0.7224849268845556,0.27751507311544416,0.07114161474235414,0.04341102883646392,0.8633886299673914,0.5491171862647282,0.38283954235613327,0.37813655623201975,0.38714330445135575,0.34813210611802925,0.32147239263803684,0.35073627844712185,0.6818797553101369,0.560756459148263,0.022633430995291554,0.015287836203395843,0.000847954796175324,0.14790971602211678,0.1502958579881657,1
91,0.2719868616825085,0.0776452892618559,0.5644161759990359,0.13690174873116634,0.07775883868873347,0.12647439312672448,0.0719298439096446,0.5101199400299851,0.07005494505494507,0.07650661057270475,0.06545961002785516,0.5899736629626973,0.7752644103542711,0.14998672683833292,0.5830639948823675,0.39987985899654466,0.010374389311393837,0.0004387502380783589,0.6363542446439633,0.9798756357542447,0.020143386781311202,0.3202504096423485,0.07775883868904143,0.1642548985516783,0.28792002374859105,0.021356957678766463,0.1598097665554191,0.39298289329366143,0.13855126966509876,0.41090909109170914,0.41920624224746084,0.6054426648948037,0.054487180284054484,0.6589143173543857,0.6823452028036416,0.6382094826178588,0.6091250969203683,0.6756881474910112,0.32431185250898875,0.08242013136080908,0.07547784146659992,0.4285326558207768,0.5714673441792231,0.134988252607391,0.1664769387358452,0.4669391257850318,0.5330608742149683,0.12648929623781055,0.14558848309353023,0.6586362680187945,0.3651262770583673,0.4289567348953214,0.42306735397024864,0.43222774553369625,0.2062804547915539,0.2674846625766871,0.2918340026773762,0.22033408676574495,0.1100431018626381,0.10947819199457025,0.06368020253523007,0.028543456490785105,0.1375718559591498,0.18816568047337276,1
92,0.249610510575055,0.039583778395703914,0.5925100682374583,0.07845393800849824,0.039604258284803545,0.06814673713245559,0.03387395056147823,0.5314842578710645,0.06043956043956046,0.06291639499737667,0.057660167130919225,0.340468563758821,0.45104508196250037,0.08149721263604992,0.6666666665339367,0.15274012917662796,0.006624877788695146,0.0001373748883931124,0.3611587457114896,0.9403643371419522,0.05984025025429145,0.2619087946109382,0.0396042583001849,0.0958512268171539,0.2528590723383557,0.008687794085105926,0.1851662325721928,0.2671193064868751,0.09971152120470089,0.3501590915956211,0.3535974038972074,0.496114834611293,0.1356382974597739,0.6527824791673469,0.6786889029987653,0.6283397366335484,0.5000049057890599,0.5034775368052614,0.4965224631947386,0.037615715137630235,0.04704815337729006,0.515831153004299,0.48416884699570084,0.08669490354287124,0.09061386281037645,0.517525382595478,0.48247461740452185,0.07664785229768264,0.08004370477537995,0.6469666861529628,0.3470808040691646,0.5131609205612208,0.4998478207890826,0.5167011217382103,0.6231727125067678,0.6576687116564418,0.7175368139223561,0.5339493521652398,0.4009300928253485,0.2000698922792576,0.21793379901848392,0.030258945906390312,0.30454395940040413,0.35502958579881655,0
93,0.27377317368666154,0.04041233933194728,0.5621719367575096,0.06515745460774218,0.040410779110709616,0.0580395670812345,0.036005014176542845,0.5172413793103449,0.054945054945054944,0.05801571201707417,0.04902506963788301,0.3670623574796133,0.5905477115374825,0.05415449960180515,0.7143997870019332,0.25522409094311344,0.022576159206621815,0.0003881126454483175,0.19780256168109975,0.8730122770100154,0.127365696832703,0.4287580342746038,0.04041077912333354,0.07608298657296346,0.3018235575137666,0.007541559855294854,0.15103294184869825,0.24889091345397074,0.06698647534522524,0.5015712046062076,0.4941911969232987,0.6275579806650053,0.17000000010625,0.6230301005527297,0.658786109301684,0.5858523636864992,0.3922735855477435,0.43337587890983775,0.5666241210901622,0.03517668142647794,0.05182816732813842,0.5494888700259951,0.4505111299740048,0.07199591325206278,0.06910456797620718,0.5380953151490679,0.4619046848509321,0.06450455998768373,0.0639200077330227,0.8058634243066158,0.5126003946898494,0.38891863659116166,0.4338346154914236,0.41843674456336677,0.2788305360043314,0.4674846625766871,0.5100401606425703,0.6387857636408352,0.5454577503648024,0.060039791904212256,0.03070977610768269,0.006972309630709654,0.13005341227699202,0.23865877712031555,0
94,0.2258266182947326,0.028501028506308854,0.6234876278659817,0.0856675519879052,0.02846124269121905,0.07220663551407328,0.022252650680657245,0.5655922038980509,0.041208791208791215,0.03768909591393241,0.03649025069637884,0.2760727055962307,0.566134598778291,0.07618794796920628,0.4218918336241506,0.09092807195577733,0.007720330187806035,5.994837579104904e-05,0.19126805911769915,0.8684259768846677,0.13209309429798566,0.2813649523296995,0.028461242684535447,0.10109254249974255,0.1902554757120004,0.007237544960125061,0.2466052123735831,0.24369017165676699,0.13782135600390188,0.3111124412309295,0.3373455489788564,0.6290927689596428,0.0,0.3532249524930853,0.47444675027890737,0.207139259514868,0.5456214249992097,0.38783063973912335,0.6121693602608766,0.023551550240133726,0.0396428552000141,0.24078963578934218,0.7592103642106577,0.05861947504294088,0.11941286812587268,0.25284298004081407,0.7471570199591859,0.05111353792586031,0.10220285326681794,0.45464879294761146,0.42319476531891353,0.3682352813480133,0.38850638998784054,0.38552687253091134,0.48456957227937203,0.49938650306748467,0.6358768406961178,0.20655759463774734,0.17097429829186644,0.10797886173300997,0.10192188578083514,0.013362798446273836,0.4940713938881318,0.6370808678500987,1
