,ECG_Rate_Mean,HRV_RMSSD,HRV_MeanNN,HRV_SDNN,HRV_SDSD,HRV_CVNN,HRV_CVSD,HRV_MedianNN,HRV_MadNN,HRV_MCVNN,HRV_IQRNN,HRV_pNN50,HRV_pNN20,HRV_TINN,HRV_HTI,HRV_LF,HRV_HF,HRV_VHF,HRV_LFHF,HRV_LFn,HRV_HFn,HRV_LnHF,HRV_SD1,HRV_SD2,HRV_SD1SD2,HRV_S,HRV_CSI,HRV_CVI,HRV_CSI_Modified,HRV_PIP,HRV_IALS,HRV_PSS,HRV_PAS,HRV_GI,HRV_SI,HRV_AI,HRV_PI,HRV_C1d,HRV_C1a,HRV_SD1d,HRV_SD1a,HRV_C2d,HRV_C2a,HRV_SD2d,HRV_SD2a,HRV_Cd,HRV_Ca,HRV_SDNNd,HRV_SDNNa,HRV_ApEn,HRV_SampEn,max_GSR,min_GSR,mean_GSR,number_of_peaks,number_of_peaks_SCIPY,number_of_valleys,mean_time_between_peaks,median_time_between_peaks,mean_height_of_peaks,median_height_of_peaks,variance_height_of_peaks,ratio_of_peaks,ratio_of_valleys,0,1,2,3,4,5,6,7,8,9,10,11,12,13,14,15,16,17,18,19,20,21,22,23,24,25,26,27,28,29,30,31,32,33,34,35,36,37,38,39,40,41,42,43,44,45,46,47,48,labels
0,0.5156881296243656,0.127364090367118,0.3137332984934945,0.2649309651027024,0.1271983079928445,0.3110859707865593,0.1504166159891941,0.3122188905547226,0.0837912087912088,0.1225574465001399,0.0727019498607242,0.3361995572848105,0.4727923956963967,0.2251128218741704,0.8033252656758376,0.2981993938676439,0.0360543901682029,0.0369589087370102,0.146255252703332,0.8125555930982499,0.1706225114267185,0.4969360877076408,0.1271983079591264,0.323439199611806,0.2412433126004686,0.0550658516708829,0.1947750250420955,0.5371015096626945,0.3039416566762427,0.6940068759991339,0.6514828399144873,0.8170846885725216,0.3241525428275953,0.7256821220638754,0.7340782594013862,0.7258694324067818,0.3014445904529825,0.4504593437149166,0.5495406562850834,0.1099961133762407,0.1551481689961749,0.6540840191184376,0.3459159808815624,0.3230525411913597,0.2767288451885463,0.6350428076904183,0.3649571923095815,0.2808255032137148,0.2473250274932009,0.5331662932788852,0.1241066401414114,0.0677508767904516,0.0594080438663672,0.0628654149144728,0.268002165674066,0.2368098159509202,0.2583668005354753,0.4923348987550798,0.3780670991158906,0.0142772982615296,0.0081155099041447,0.0006109038530105,0.1067149100136271,0.1045364891518737,0.8802721690821799,0.0850474079763575,0.0457608737055459,0.4346545057838071,0.0994618535268182,0.2585174118656787,0.8841541372805346,0.5588415929246364,0.5170392499859015,0.4826966988699557,0.5916615883768864,0.573821827911573,0.5884999178287181,0.7181863377110174,0.7992167780860919,0.3110673721213917,0.166452863907405,0.6458634346859988,0.7962034425120692,0.5738218279115735,0.5884999178287177,0.7181863377110176,0.7992167780860899,0.5401636875802843,0.3404730301453652,0.302354974913391,0.9208497780269054,0.3629655755563654,0.3356695311815542,0.6602248797669068,0.4413916945115418,0.0370738429082304,0.330853661910281,0.6041200287169268,0.4001663478868812,0.3806611454866574,0.4210880349656779,0.4918693921092137,0.3941135975700732,0.5046443722254748,0.6864570811009258,0.6875028710103301,0.4049120891855541,0.6350059671982269,0.6353879664003577,0.5443065582418555,0.4587273652932829,0.5577108939999053,0.448327122773125,0
1,0.4670980808585079,0.0439528306535464,0.3559069841225016,0.1022852564509511,0.0440354974369399,0.1183649663358599,0.0507886380513683,0.3437031484257872,0.0673076923076923,0.0950739110184912,0.0685236768802228,0.2995320346416084,0.5204380542626458,0.0751260950358375,0.5110105581079993,0.2772523471003846,0.0200285322780611,0.0039752143685312,0.2411068880582765,0.8967901848840908,0.1015148146380006,0.4115993997325498,0.0440354974538755,0.1268006415994352,0.2190175844790354,0.011469314758991,0.2152185818762275,0.3043194369432105,0.1447603186153441,0.6523397916884898,0.6411012605009886,0.8335403471805312,0.1287878797054924,0.5987125236552986,0.6415604219336779,0.5536228664322684,0.2997384600945869,0.3215504491932459,0.6784495508067541,0.0325276497289191,0.062324159613242,0.6453069966805369,0.3546930033194632,0.1296757812956331,0.1057344358928141,0.6161896602581222,0.3838103397418779,0.1099456936074992,0.094781861694735,0.5050269188871384,0.2215450986710568,0.1721994949910204,0.0890172939784782,0.1382153784957387,0.4195993502977801,0.445398773006135,0.4859437751004016,0.2652160164896295,0.1762087528049931,0.1212096949115127,0.0742241892588501,0.0267542824241195,0.3249064110395814,0.3708086785009861,0.5547070094191515,0.3146401870993811,0.2986532526175529,0.5156977856715165,0.3401316942989932,0.1602123584448279,0.5434988853586591,0.4632937100118169,0.4072541549699652,0.2496403169464074,0.1921307008798153,0.5072355982791353,0.4832539858566446,0.3284074341289764,0.4698398829429007,0.4265211112818323,0.3459775201314483,0.4665243272662884,0.4869590534088296,0.5072355982791332,0.4832539858566457,0.3284074341289762,0.4698398829429019,0.2464281921369884,0.506675000979923,0.5671696027773675,0.5615484548347328,0.4721726106376001,0.4194563449775156,0.5029718047387466,0.5388751771708498,0.3903184866513479,0.4122861657295542,0.9297715405526616,0.9872333162888158,0.7876210470909938,1.0,0.5874699308776633,0.3517619039200206,0.3578177341478778,0.5698522896425622,0.1463201521479815,0.9928160288587704,0.1308316517139579,0.4490810961781083,0.8008686595610252,0.540507407110935,0.8026183818410164,0.707607710186775,0
2,0.4411278955393594,0.122873038547609,0.3783740983641334,0.2179233542672702,0.1230356619498309,0.2414916529581192,0.1365186853223394,0.3815592203898051,0.1236263736263736,0.1626640927824237,0.1158774373259053,0.3798609019487844,0.5438569626702211,0.1805149986726838,0.3981900452272475,0.4837287129781686,0.0415812806196324,0.0124512123129716,0.2075632311132615,0.8763478064318754,0.1203185771225905,0.5179851039927695,0.1230356618815195,0.2548049031269283,0.2987460619018851,0.0439263293434241,0.1529206108724701,0.5020481938742369,0.2007055356698719,0.5088211806666759,0.4879022793801711,0.6321266538981685,0.0965909081853693,0.3910598512457395,0.480905293631461,0.3017150375051329,0.2206995176499782,0.3759517256189379,0.624048274381062,0.0989710358809637,0.1589965473983499,0.8989090431671691,0.101090956832831,0.2982041259902625,0.1656408940815314,0.8311449771613091,0.1688550228386906,0.2586230459844325,0.1624542431844818,0.5381661664527038,0.2433981299193914,0.0918032242688595,0.0217450658028937,0.0821122153534915,0.4152680021656741,0.5042944785276074,0.5502008032128515,0.1615936852214037,0.1249555492881755,0.090752922158189,0.1120914740859505,0.0058273683849715,0.429851354103034,0.5562130177514792,0.6010073682991918,0.2448814904699382,0.3030659442742825,0.2979164806092211,0.194911274743649,0.1706414000900288,0.5819798551630129,0.6485522659990527,0.5309370635150304,0.4131497729338178,0.5022646388373119,0.4902788675357215,0.4653809540317776,0.3499856748258083,0.4377375744951569,0.6870757241794283,0.3747327990417452,0.3842997117217257,0.7704256002617532,0.4902788675357193,0.4653809540317785,0.3499856748258118,0.4377375744951583,0.2937458945157917,0.2791800489936611,0.218574720680302,0.3996955934215307,0.1590053776840596,0.3386662858355704,0.4332552218915009,0.5590860331043458,0.357413716559602,0.3424726179241795,0.4569022650067427,0.3667728733975464,0.3567349877318161,0.3438208906416715,0.6578051668915471,0.26815760858798,0.28855286262348,0.7386159670909793,0.5108681008411152,0.3115698827255709,0.3775049055832016,0.1818786491507211,0.2469273571678212,0.758964179720266,0.2213500910887671,0.3155643129840701,0
3,0.3614279948662395,0.0897638636422435,0.4614665294176293,0.180646815183061,0.0898726070987071,0.1852285910158955,0.0921437256983218,0.4355322338830584,0.0934065934065934,0.1147899961373941,0.0813370473537604,0.4405835593431275,0.731747773361557,0.1852933368728431,0.6378414613952302,0.2782333236814176,0.0284205999524037,0.0075361805599341,0.1724842854167218,0.8500138320324825,0.1466793539721912,0.462091251573788,0.0898726070973164,0.2208360421274268,0.2502963795581472,0.0302082781049593,0.1872286173216016,0.4447984641076838,0.2071921917219785,0.7460415186408386,0.741288231089318,0.9289150561547364,0.0,0.6930083229284985,0.7050112215700499,0.685628050555072,0.2356630265135315,0.5369842436634226,0.4630157563365775,0.0846833387458563,0.1020868177558786,1.0,0.0,0.2750144276833416,0.1191184449407722,0.9522976649284998,0.0477023350715,0.2371078313047667,0.1134877977325396,0.7198961361822647,0.2568623513474343,0.1904555864102597,0.0551754603783957,0.1322143026572174,0.5192203573362209,0.5092024539877301,0.5555555555555556,0.3876195049207334,0.3053166116908437,0.1852928327573542,0.130971083774969,0.050280490114284,0.3546669172814561,0.3767258382642998,0.5443905301678056,0.3390310059638044,0.5409818411168186,0.8057447812640196,0.6746007242475973,0.2733901321249218,0.5376276630108874,0.3746010830473592,0.4079456564598556,0.5096044269570523,0.419296921970104,0.3411571695721902,0.4738530842420365,0.3893794199495454,0.4511992413755289,0.7475869964287848,0.4963763270442314,0.2466306353046856,0.7818225733802942,0.3411571695721908,0.4738530842420369,0.3893794199495451,0.4511992413755284,0.1754431373646191,0.2299919512669018,0.1950733493048377,0.3460540995259009,0.1268856614836964,0.6738570088723836,0.271679910995094,0.6990375097118713,0.7450701721131259,0.6560666231328117,0.3921306050025104,0.4172144744522718,0.3722328953119428,0.4131703209251837,0.2785213296236213,0.507063681648303,0.6750152907578035,0.7818483194776421,0.5442248344498672,0.4096236627723538,0.3613861498354098,0.3953709702369067,0.6286409195197877,0.1840949515884422,0.6478333656620197,0.3374249787545565,1
4,0.4109257039626943,0.0296623273419816,0.4097272686067431,0.0932741414318456,0.0296305075242578,0.1015676043942017,0.0320796100052507,0.3883058470764619,0.0741758241758242,0.0975204442777822,0.0690807799442897,0.2644173466242845,0.4847229434084125,0.0822936023360764,0.5993166497774126,0.0398414620654364,0.010257451206014,0.0007074561731635,0.0669883867526229,0.6658258812291307,0.3336179969640582,0.3187297564103672,0.029630507532635,0.1178633263474595,0.1712620436384105,0.0083372779529328,0.2712198300738547,0.2617601084460521,0.1700223438238757,0.7950843276092475,0.7609412975055837,0.8939600638773819,0.2881355926800846,0.6956411254189576,0.7094343987885656,0.685468629737124,0.3625431931851803,0.5422437160599151,0.4577562839400849,0.0301926976768438,0.0336235673819544,0.6006021097314916,0.3993978902685083,0.1160916473409139,0.1027192726150549,0.5961611727157017,0.4038388272842982,0.0985313254814789,0.0877839764699144,0.8431188883733265,0.3513663912419333,0.0553998554563518,0.0454086505668365,0.0505671808828396,0.1792095289658906,0.3717791411042945,0.4056224899598394,0.3842817602991868,0.2381653811725178,0.012074154928851,0.0043263114076593,0.0005736613828711,0.0714722052535125,0.1646942800788954,0.7072762747918333,0.2309903662942229,0.1937646056430489,0.3680810003445258,0.1918088385076939,0.2290440333031542,0.7028495680100217,0.296384227047861,0.3209905672394211,0.5284778675705164,0.3666384448440533,0.3237446654670518,0.3678618789466005,0.4450145534719229,0.4091093669115182,0.3813640151685261,0.2880379911398193,0.5362138441086421,0.8074279771530453,0.323744665467051,0.3678618789466003,0.4450145534719227,0.4091093669115196,0.4141545888541233,0.4127096947247277,0.361516808586185,0.6462838675777256,0.3533296606962565,0.3032046890963794,0.4859592374953749,0.1096641886180722,0.2943837662588666,0.3207173486533949,0.366292710252066,0.3134884647699243,0.2797549356724099,0.3154494172202636,0.1551194105611302,0.6976503870946791,0.8507986522228544,0.7981924224723944,0.3755351867916488,0.3079470444311069,0.377959954167764,0.2317245306320116,0.4358388966929587,0.2527620060962446,0.4047482741238229,0.2537737976649339,0
5,0.4953787037798991,0.0463974542282683,0.3303948666928059,0.1616174930791243,0.0463286084341626,0.1891841302591861,0.0552501919506545,0.3253373313343327,0.1401098901098901,0.1968185691393111,0.1236768802228412,0.3235594370445381,0.5763618318956395,0.1513140430050438,0.6459998074038371,0.126903837396929,0.0105310273648756,0.0066622737193834,0.2013895972145446,0.8690043201124712,0.1238921089847403,0.3222639480331847,0.0463286084366418,0.2042720549649698,0.1413776448324388,0.017294327844294,0.31837339466401,0.3621884522499707,0.3075627704266035,0.3422258473250228,0.3285700560679647,0.6314307091505749,0.1666666677291666,0.5767972726461736,0.6258597636286605,0.5247644734059582,0.514625585011161,0.4832300506873066,0.5167699493126935,0.0426258616725096,0.0560899319891473,0.7354754779713061,0.2645245220286938,0.2188584570594909,0.1590361879272332,0.7196671279708586,0.2803328720291412,0.1842232210399109,0.1367168176127047,0.8037418420187337,0.2679866598530614,0.0784960034050996,0.0638015772969246,0.0700478485142462,0.1272333513806172,0.3901840490797546,0.4257028112449799,0.2482696429198824,0.2133695478902772,0.0413788921133402,0.0180989421390356,0.0038212913157971,0.053772535751766,0.1816568047337278,0.3997918779634763,0.505241035833973,0.671031486893642,0.5461000884946385,0.640011860680779,0.2826402386276218,0.4015185629588743,0.2421365721898543,0.2269629802048806,0.4450801208587833,0.1553922284662915,0.2942211328561178,0.3735103422329374,0.726571078891322,0.4182180592712438,0.2695419375867088,0.6000397627340838,0.7042621971732324,0.7722030862841338,0.2942211328561169,0.373510342232938,0.726571078891322,0.4182180592712428,0.6489157262741803,0.3223814374576242,0.2223423024080204,0.4194955606191753,0.194337065504459,0.3767877927134036,0.3174558327067919,0.346459463209875,0.4061472246981957,0.3900500896797891,0.2996032120575438,0.3568989335006231,0.6998209647272118,0.4132644364652376,0.4149529150893946,0.4624401420103943,0.5819846929220173,0.8243467577398389,0.6506135784253635,0.3400460801922025,0.7732216794894777,0.6178251504211627,0.3822928803634025,0.2569914842788804,0.306827316611118,0.239465295769902,1
6,0.5489217057959102,0.0418806331947358,0.2848143951716101,0.1749915782084048,0.041810142877471,0.2142424036926303,0.0531249349258881,0.2818590704647675,0.2087912087912088,0.3045037708109386,0.1988857938718663,0.3382909260581102,0.5426300784256214,0.1003451022033448,0.6358851232414904,0.0597142297368665,0.0052676648591219,0.0012146488348289,0.1760281177529132,0.8540515326638408,0.1437953897260645,0.233772704581042,0.0418101428827664,0.2226757799141835,0.1148622433581375,0.0173502426496349,0.372117845561268,0.362654686022011,0.380843607284086,0.531288538071854,0.5056549989300382,0.7126006587800109,0.0745614029216008,0.5738999129511688,0.6198380915279758,0.5273503452111572,0.3803102790161983,0.426243456205162,0.5737565437948379,0.0360308120157976,0.0539357174670648,0.5941307316536157,0.4058692683463841,0.2143291039051688,0.1986639778343882,0.5842656427624794,0.4157343572375205,0.1795774428382387,0.1689085325978547,0.6784007021603253,0.216741193085542,0.142987504178761,0.0595498930301609,0.1161647775692093,0.4109366540335679,0.3570552147239264,0.3895582329317269,0.4939979153735345,0.3033316574904047,0.1012302406959166,0.0926192979647526,0.0125477153098905,0.1745375373964256,0.1670611439842209,0.7861044532246266,0.1265606320353374,0.2076281983249596,0.8651914674281946,0.3376233415975827,0.2433726296504738,0.7920430802488487,0.6020767681884347,0.6129923795107199,0.4553926531933969,0.5463508057335404,0.6849657433869244,0.7568371064091113,0.557061863339902,0.7633174431323672,0.6294117415211253,0.5048120718066972,0.4052807564630826,0.8187989729138959,0.6849657433869234,0.7568371064091117,0.557061863339902,0.7633174431323662,0.22248557661548,0.2925018254613253,0.2300994248824527,0.409165377745094,0.1670353067341503,0.5495758116578785,0.5713865048496407,0.4380530233611969,0.1617172589496932,0.4746327347132317,0.527853725402085,0.4235547197623697,0.3115923646892991,0.3758682763526222,0.5524517149658272,0.500849815724165,0.4559268007027706,0.8860326571086655,0.5861182922884265,0.4136578242434227,0.4892043013164428,0.5102051804643314,0.6441413189555589,0.4868059654773726,0.8801055587854878,0.9095156093788742,1
7,0.6430671131986878,0.0185140631766176,0.2119907021430614,0.1861265814547896,0.0185336700959282,0.2456128528111353,0.0289726533765437,0.1799100449775111,0.2582417582417582,0.4195258436215051,0.215041782729805,0.1724774600703696,0.3246454792277327,0.1037961242367932,0.6558424274214023,0.0254073530898406,0.0002299470566195,0.0003709612027833,0.3362300745199467,0.9322089735592792,0.0661679990828489,0.0223615072554892,0.0185336701085247,0.2392719245883931,0.043180450315501,0.0117592886768202,0.6302000903677442,0.3077469284853498,0.6583090662669125,0.360312326945732,0.3631970000269966,0.648079471987774,0.1634615387271634,0.6328812759041575,0.6670111880791703,0.5967243674696974,0.4572258816739865,0.4799293104957256,0.5200706895042744,0.0182122242765689,0.023522098003834,0.6727125240841626,0.3272874759158375,0.2439554923260617,0.1997119417400572,0.6640077807990186,0.3359922192009812,0.2020658288315656,0.1669110955440273,0.4931354480240781,0.1079368651436343,0.0900044761552569,0.0589314634176511,0.0800238750423132,0.3957769355711965,0.6969325153374233,0.8192771084337349,0.3737337065361237,0.2656083309830658,0.0423797312819203,0.0205485427472921,0.0050851414683915,0.2575536863869179,0.5266272189349113,0.2428291694310504,0.7752618477245444,0.3978851014215543,0.0077251268183354,0.3022423666513716,0.3983572572300256,0.2418774907383262,0.025918830440226,0.298629086768521,1.0,0.358066134614231,0.0,0.0564466341825348,0.309047786638389,0.0980951097954793,0.681956824648942,0.7159591802449594,0.351943715461308,0.7826631719175351,0.0,0.056446634182535,0.3090477866383887,0.0980951097954793,0.722176830184739,0.3202054667097295,0.2216010606791442,0.2874507085502752,0.173459249974223,0.924170143409896,0.1725328826166468,0.3458929709709105,0.5469390544768914,0.3320353688406621,0.1205894053682483,0.2599067687420785,0.6603537751177289,0.3175536382800722,0.430728646134477,0.5083821001111501,0.6114072054125241,0.8120050414570249,0.6970447586849232,0.2395418575941436,0.7125345685213715,0.4021176386465681,0.5816207545728346,0.0782853918981614,0.4655887055058849,0.1983198930600514,1
8,0.4602764994116126,0.1528034058912419,0.3648584944320893,0.2715745144557027,0.1526630463298318,0.3037932907278421,0.171652834045346,0.3654422788605697,0.1785714285714286,0.2381477366187201,0.1646239554317549,0.3369671341626187,0.5095221485704454,0.2758162994425272,0.5718194253626161,0.0865511677277312,0.0286572293876591,0.0142341456147681,0.0518073805010769,0.5928498653173954,0.3913514963514132,0.4632993144136921,0.1526630463057454,0.322112547708164,0.2952150278404988,0.0641200578586128,0.1551242827034272,0.5608764486918769,0.2534715310490767,0.5335058035750023,0.5007047214489263,0.6993388595170713,0.177083332735677,0.8276110324617885,0.8057307627507859,0.8551401138694277,0.4890795631451725,0.6105689116421531,0.389431088357847,0.1497521498370424,0.1619318966348533,0.9742854428158254,0.0257145571841745,0.3872799629694681,0.1922089276792644,0.9310914595688624,0.0689085404311375,0.3408103521619066,0.1831012355727716,0.6206938792747845,0.1407631560338731,0.1565841731868703,0.0,0.1070273040972343,0.4055224688684353,0.5754601226993865,0.5836680053547524,0.3719809026354519,0.3259586025922428,0.1916721273734231,0.2157102082908189,0.0359687403724547,0.1995990163369516,0.2879684418145957,0.240416493842719,0.6849632682988969,0.7356446006891556,0.4401203640038804,0.709585643504112,0.980569842988201,0.2726814641425878,0.4681194744260721,0.2885155781320905,0.2504202694456883,0.2141737843279295,0.4664847351534732,0.3230880692495567,0.1058271138850615,0.3206680593859584,0.6111224029661781,0.6372160641099787,0.5365187329708824,0.8070397085440641,0.4664847351534734,0.3230880692495567,0.105827113885061,0.3206680593859564,0.2423408582142585,0.2699572806698938,0.2181970394962839,0.3909183683700688,0.1541874202540051,0.4191222021758446,0.2712279289274806,0.5677777065595795,0.5156959992501947,0.3433240869938648,0.4786702606680482,0.4274040152113042,0.2960084410554817,0.3970222663985339,0.5031293178597356,0.4224887414588957,0.5379747221791584,0.8515928491023639,0.8170998727108898,0.3908185140158493,0.686603192643948,0.5554252230433819,0.4846712535681646,0.6792133941155988,0.5446853764401812,0.582295950448451,0
9,0.3971753693072857,0.0503744504259674,0.4237106323448573,0.0877522867266093,0.0503396896764367,0.0940646674247184,0.0535324283190689,0.3995502248875563,0.0521978021978022,0.0677925518636653,0.0456824512534818,0.238215058198594,0.5294865123188438,0.1133528006371117,0.7466063348010892,0.2827209336931281,0.0389029072142431,0.0067439472558835,0.128363141103335,0.8016854771159537,0.1958379380660664,0.5081450191463982,0.0503396896850553,0.1040921048335621,0.2869455771230867,0.0109595348215211,0.1604496191837647,0.2981117567207982,0.0928888923666829,0.7448051958324221,0.7329971775789631,0.8850040436320599,0.0745614029216008,0.7463994962359384,0.7509224190433816,0.7449660929422581,0.4027422060414825,0.3901150133808766,0.6098849866191234,0.0412168090897323,0.0665039964918258,0.875843260253758,0.1241567397462419,0.1292698415752994,0.0601147507698418,0.8163029958026102,0.1836970041973897,0.1113019083239192,0.0603122431325796,0.9063801126582928,0.3361267390716729,0.0448358415558375,0.0426211715827797,0.0448220831658831,0.2452625879805089,0.0777914110429447,0.1274431057563587,0.5755325752163678,0.4580538558693333,0.0028355418901474,0.0014754392603026,3.3594558404788816e-05,0.1142333536957849,0.0595660749506903,0.6385844711583549,0.2397186395903481,0.1548548394121598,0.3399703747312246,0.1628307638782412,0.2256886025129592,0.6342316068037073,0.5252843672759436,0.4342476228235673,0.3557857706948629,0.3883753743553881,0.7408733509018086,0.6380341985934119,0.3811030473220825,0.6901111208571694,0.687485850755134,0.4363872999474807,0.4151342926093594,0.7807506802366555,0.7408733509018096,0.638034198593413,0.3811030473220823,0.6901111208571716,0.3269308993977124,0.3244740889837189,0.2135296412733072,0.2639297846374768,0.1702472783541866,0.2166369472533977,0.8428003711161343,0.6841678259946146,0.5740173167438922,0.9202246077731012,0.6370928966051808,0.4114256522753818,0.2604354106386319,0.3698094264479279,0.8065592439770632,0.8128865652979778,0.1946716267651773,0.7888483208624428,0.3576342155399427,0.4200698834664797,0.4260734594189327,0.352888340789676,0.2683117984970207,0.4232158174264263,0.3581274511810189,0.2758001748018553,0
10,0.3937051126594029,0.0684390766654604,0.4271417743461562,0.1310933749922272,0.0686710772102934,0.1392853829223404,0.0725523705149241,0.4104197901049474,0.0851648351648351,0.1082831295076299,0.0788300835654596,0.2760727055962307,0.3069672130458873,0.1138837271037961,0.4021719456795201,0.2262607096752453,0.02733680122731,0.0090544099299339,0.1453560259398855,0.8213600103498623,0.1737232506335281,0.456433051760717,0.0686710772196979,0.1588945198743681,0.264348795586098,0.0188912988214494,0.1762933638776715,0.3750019575177525,0.1464854426718651,0.8067045462278192,0.7825127144542191,0.9134221843134128,0.3863636369914772,0.5252799688347141,0.5921614271253433,0.4518505670705282,0.4306007177921431,0.3693085315288325,0.6306914684711676,0.0547245929127918,0.090906808417453,0.6367791255868271,0.3632208744131727,0.159797703852329,0.1351074794016425,0.6081132630816478,0.391886736918352,0.138572518460489,0.1234181499828721,0.5919862433443506,0.2803408595106983,0.1508667734358807,0.0446521127537062,0.0901877723034296,0.4109366540335679,0.4171779141104295,0.5448460508701473,0.1900640612739644,0.1554242130691223,0.169911318360637,0.157042125207611,0.0082635929941647,0.4220196419341196,0.5463510848126233,0.4508716457543552,0.3454904623280075,0.2438917541516203,0.2608484354721893,0.1413777473530199,0.2825495513089679,0.4369361997466024,0.827451078291668,0.9481210065571392,0.5711889089578694,0.9826201656441352,0.5753049913054309,0.7630014311223885,0.7347950073113086,0.7413049094627238,0.4980887412795726,0.661964971598721,0.5992806042155252,0.1155352861700489,0.5753049913054319,0.7630014311223892,0.7347950073113088,0.7413049094627249,0.2181404352800952,0.2530488720763202,0.1929308611469778,0.2237599094958252,0.1252796756736783,0.4742694339298005,0.4953333428351746,0.4314556306963628,0.5178018640938863,0.3953782749391573,0.7259587560360817,0.5967150907938535,0.3661908905845605,0.4918797531516767,0.4552002540109617,0.7786521425991743,0.562781437335558,0.6414491066894608,0.677010360785113,0.6005853248816613,0.550773009743324,0.7937622339523501,0.6453123091210404,0.4715593720264728,0.5368948113524383,0.4318585172225382,1
11,0.4357312912395357,0.0250289479075586,0.385334283143712,0.0646729186684746,0.0251900527441291,0.0735282348964709,0.0281679399704894,0.348575712143928,0.1002747252747253,0.1382950178711021,0.0782729805013927,0.202857776387177,0.4197865039715207,0.0419431908680647,0.6525892408333436,0.0736685023198891,0.0133460339368084,0.0009859629326288,0.0946951908871585,0.7436494444314778,0.255755744836356,0.3545562679444585,0.0251900527546909,0.0782766608566842,0.213740963647227,0.0055655032319765,0.2205214498310205,0.2116439305674131,0.1017113429280607,0.7602537010308118,0.7758819388820181,0.8366753317916324,0.2771739140482336,0.5896874515012547,0.6367442316955982,0.5376426167315573,0.3231806918698541,0.4558128909404063,0.5441871090595937,0.0231759899261854,0.0324103375281,0.7109384239275955,0.2890615760724044,0.0879472638424577,0.0571901833088111,0.6890716651943902,0.3109283348056095,0.0744904371802121,0.0508376019430399,0.3062150909539257,0.374494769206818,0.1134299579894953,0.0520341977102427,0.086809673610474,0.4325933946940986,0.3496932515337423,0.3815261044176707,0.287092882991556,0.2254509448075437,0.0749790610089555,0.0762636288527428,0.0070547359024648,0.4643108876462571,0.4003944773175542,0.6603202463415965,0.2337159925269362,0.2185799728584528,0.4751631101564836,0.1984097666693005,0.1479695704265485,0.6690060484128593,0.4658046225209873,0.4844694900116437,0.396263473964916,0.3657199830337151,0.3202298028231959,0.3137320521573503,0.2471922694670461,0.3027531680816907,0.1203213390157401,0.9108925125449224,0.9721152623703752,0.478436640213697,0.3202298028231956,0.3137320521573505,0.2471922694670457,0.3027531680816908,0.6633725841125305,0.956058908520355,0.9140641066847672,0.5403866267816635,0.913818708392593,0.5304585836926031,0.5270122352222028,0.1947616895877632,0.3206264593496654,0.3206186584295961,0.3704150343093846,0.2864718111547394,0.1009348454653806,0.267265235515803,0.2453463560284069,0.9430159776909606,0.7735096015845565,0.0546654662095617,0.4464971876816148,0.2914073230384105,0.4574840640423253,0.2024056511731608,0.4684810066591598,0.1902470638507094,0.5181745739526895,0.229979427205659,1
12,0.4471788575146256,0.0221984394291109,0.3743060312723493,0.0759061481009659,0.0221691616212676,0.0869625250697243,0.025536922539477,0.3470764617691154,0.0714285714285714,0.100072041999685,0.0646239554317548,0.2067281691791969,0.4932006932540381,0.0682240509689408,0.7056812467309133,0.0558482706918037,0.0145912448489088,0.0009859629326288,0.0661231870000936,0.6626996619027311,0.3367101378793885,0.3669224216822018,0.0221691616245542,0.0962857460754086,0.1675348532320481,0.0060018574075785,0.2764875980890623,0.2206389196107017,0.1487624242030758,0.5766720073886585,0.5603732499891464,0.7610238855181168,0.0,0.620701600327791,0.6560012233444672,0.5849995976623381,0.1617711585393115,0.4085547919817415,0.5914452080182584,0.0189621466977282,0.030653371923433,0.7163925226450333,0.2836074773549667,0.1066351337882727,0.0717810528818049,0.6948890745961415,0.3051109254038585,0.0889260583371019,0.0622528550693549,0.8049857619914731,0.3176623250267912,0.3327517801450553,0.2653797679932675,0.2715268355689412,0.1488900920411478,0.2699386503067484,0.2583668005354753,0.8282681594778283,0.7576118012041544,0.201297543478384,0.1903097899446939,0.0429735575753338,0.0592547342700061,0.1045364891518737,0.5996285371672987,0.2604383819120687,0.2008449781351693,0.4003681422029358,0.2085589151587494,0.3575422624042323,0.5960282164119668,0.5789597964419138,0.6761998137145053,0.5290267386948377,0.6834305159343734,0.4698321547977305,0.5398378820009274,0.4624535590711801,0.5188305416680933,0.4495857911416446,0.3260336033608173,0.5039997381791665,0.7797165209355629,0.4698321547977305,0.5398378820009255,0.4624535590711801,0.5188305416680941,0.3533223511386228,0.3436083106309318,0.1434568669225969,0.2443924452267857,0.115369729821272,0.3889217247880054,0.6840965463571743,0.5841324551555164,0.1955523038166023,0.469804555092999,0.5536521250501172,0.3470583817148505,0.2473621438476533,0.3013503650975832,0.52594623894097,0.7208260180002514,0.5078571862384993,0.8210514912374156,0.496087988675126,0.3359909862269522,0.4606439417871951,0.3500525924737259,0.3196729915755192,0.6494189596473142,0.3249978663099279,0.4236759880546231,0
13,0.5365282034032819,0.0175730257035859,0.2947775669316413,0.0117544440712529,0.017630716229715,0.0218044838303194,0.023782681306385,0.2676161919040479,0.0,0.0109863110314225,0.0077994428969359,0.1971976387250072,0.3905447269677116,0.0108839925670294,0.7127601809567732,0.1279843788067786,0.0538297215428881,0.0054208359645824,0.0397882693006891,0.5339229925635126,0.4637366916661209,0.5563400307822031,0.0176307162498523,0.0094756409490032,0.3859740046144201,0.0015285139036562,0.1090108893038455,0.0897782509899691,0.0069518769385322,0.692118827706048,0.695179926982593,0.9076361487337616,0.0494186047808866,0.6118089046036532,0.6503067307221793,0.5716911305338512,0.551525394166505,0.4756936731545107,0.5243063268454894,0.0173005317200226,0.0226206094569049,0.5512422329719168,0.4487577670280832,0.0109522609621187,0.0068570865119916,0.5460532412561344,0.4539467587438655,0.0124123105660469,0.0095023668104193,0.5576311861812568,0.5390315653273792,0.2867257254402732,0.1912794601846411,0.2146000475125803,0.3069842988630211,0.3815950920245398,0.4163319946452476,0.4051280249530568,0.3314643597258157,0.1245685180582496,0.1280731890297528,0.0218980359843732,0.2403239196153063,0.3175542406311637,0.6897117211555648,0.1951553210102085,0.2269781196757409,0.2594221747114706,0.1264152819079095,0.1710523156059251,0.7366903252571053,0.3706620511780804,0.4490735111042742,0.6943774898343111,0.4915732586116802,0.6206461363117458,0.5351801713191064,0.6995240738586528,0.6166846732779144,0.757743461114579,0.6025548779239039,0.2514546700473472,0.7565926863361423,0.6206461363117428,0.5351801713191064,0.699524073858653,0.6166846732779149,0.2444373177856791,0.75273634143941,0.6084455812085603,0.2694936839112871,0.305607050271242,0.3484713062070454,0.576089098316785,0.7253937634430984,0.1465716230489986,0.5058802356980375,0.5417986223708909,0.36978048273214,0.2986128214002664,0.3609770855338841,0.7295469756271294,0.5935234998880519,0.3804749943273841,0.4870958611465196,0.4712936378092797,0.3846909688953108,0.5719822775629486,0.4555048417908906,0.698028444176501,0.139295810811977,0.5471975259869066,0.1458214966048074,0
14,0.4866097202184742,0.0132407770301792,0.3379344953858666,0.0106509180635703,0.0133405614087492,0.0177325293019618,0.0169678013395072,0.3103448275862069,0.0137362637362637,0.0264333654014317,0.0178272980501392,0.0760377817887561,0.39992067689412,0.0,0.5830639948823675,0.2268245445732128,0.0592551229286923,0.0085329243993809,0.0662575059398426,0.6614448688544476,0.3354517139797418,0.5706766203624084,0.0133405614189194,0.0101908027656026,0.3396969939694983,0.0012310983939377,0.1300511180428337,0.0757869190854545,0.0129021166831395,0.7545454561433634,0.757738384737865,0.9707659316788332,0.2833333328020833,0.5545580409056146,0.6069350567231875,0.4994552505870939,0.5401716068771494,0.4566006293342272,0.5433993706657728,0.0130584507949783,0.0182148667631564,0.6567584647103905,0.3432415352896094,0.0166993723011161,0.0025880112393574,0.6310682454100128,0.368931754589987,0.0155749242237604,0.0052264935056969,0.4609539974681007,0.5092645510309991,0.3237045904982157,0.2527920541797757,0.2632541710720634,0.3416350839198701,0.3361963190184049,0.4591700133868809,0.3099535058029911,0.2664927468700567,0.2178155385861033,0.13783625970926,0.1077095487227491,0.3562332597152389,0.4635108481262327,0.6308786328517237,0.2460608298150167,0.5323228147002369,0.7571296395172491,0.5097376259733284,0.1676310971574669,0.5998048976905483,0.4219405957822354,0.3910143769068414,0.3446041469355348,0.2493667210523686,0.5716006252850394,0.4021247886038004,0.2921496877895475,0.3882088454232225,0.8094410020211669,0.5993945800116933,0.1364674707186859,0.8204336095571698,0.571600625285041,0.4021247886038005,0.2921496877895474,0.3882088454232226,0.2727885151492758,0.133102601833212,0.1595704977997527,0.3628979872882086,0.0515481771541854,0.4423767639220965,0.4523529291687528,0.7624146352536911,0.5498167593514367,0.4723664567252827,0.4404752523153128,0.3809880945503414,0.3783783029226313,0.3734423030989788,0.5930540612798972,0.936051643672172,0.3581373016237472,0.7548066222091963,0.5016235058689207,0.3787327502931072,0.6289268748064003,0.4746800610457783,0.6837373303655042,0.0981754839223434,0.5964863829461248,0.1273006498505171,0
15,0.4873162937711355,0.0292389111137374,0.3377676870377465,0.1498953406762981,0.0292757612184141,0.1745353729964943,0.0351997871014732,0.3193403298350824,0.1675824175824176,0.2357883418506084,0.1481894150417827,0.2122430779820742,0.4610036561344011,0.0921157419697372,0.6897220425688838,0.050986114660584,0.0030940539723118,0.0004485510624583,0.2266892592923593,0.890063300218141,0.1092138538091004,0.1740363888415002,0.0292757612381224,0.1909945113564242,0.0996800177649773,0.012230667827313,0.4099029315275636,0.3131679980029791,0.3668507551612459,0.4638848930572289,0.4600546289856665,0.7042043903218498,0.0,0.7411591461611575,0.7479887490812749,0.7359703978347807,0.5994682123729107,0.6411004997074229,0.358899500292577,0.0333251336673926,0.0282589656481049,0.6083362595457542,0.3916637404542458,0.1865925020398471,0.1677706138839104,0.6063952270446226,0.3936047729553772,0.1564555674936234,0.1407512332865301,0.5786295513926052,0.2098715338227189,0.4197480977368643,0.2863860162512426,0.4048320436638268,0.5690308608554413,0.5656441717791412,0.6171352074966533,0.4228044081651773,0.337810082034555,0.2060073331116693,0.1877366725581228,0.0244365287613092,0.3875601083908964,0.418145956607495,0.2903558959929265,0.6693388808442111,0.5599453569182973,0.3911018758660334,0.4376318219724577,0.1137636772729199,0.3158983447155064,0.3411780168222037,0.3936085901198451,0.4907798952783974,0.3299255694309581,0.3730008824961972,0.4118254675562655,0.430402693728395,0.4002398460362,0.2606915802072871,0.6863712428697399,0.7970349985214484,0.7431366258541736,0.3730008824961984,0.4118254675562657,0.430402693728395,0.4002398460362004,0.2019054281008008,0.1840314023487898,0.0032962864660272,0.2729137074245678,0.0,0.4989067472106155,0.2449551870755331,0.1938379172134009,0.3319255218333966,0.259035322852176,0.2557260226202839,0.2789852280633401,0.276400556777148,0.2698720951783017,0.6930356394742307,0.735339493169513,0.2217077816776324,0.7075832411926679,0.4870067899485608,0.2590343448907797,0.4360392881444728,0.2924621013103722,0.7332284897615519,0.2280459989777169,0.7235567761558444,0.3438441520775023,1
16,0.4162472945830173,0.0289777747345199,0.4044489985205145,0.0806989601039657,0.0289476045659974,0.0887521432254816,0.0315895697645857,0.3830584707646177,0.0631868131868132,0.084049537451212,0.0635097493036211,0.2333363895184035,0.4919850159915709,0.0706132200690204,0.8013574660198359,0.0550749763001234,0.0102553176330671,0.0007066394377985,0.0913672489008576,0.7361777689467554,0.2633704956375587,0.3187019236844141,0.0289476045686477,0.1013627180829821,0.1921195447849724,0.0073299208684784,0.2443723986830827,0.245288210864107,0.1368758051386216,0.6608062536573712,0.630217808293004,0.9045020463600412,0.0838815785524259,0.6399051387973027,0.669371637551778,0.6113524406148878,0.3740630557194238,0.4583365029395654,0.5416634970604346,0.0264799660969475,0.0367787268031078,0.6123127530523126,0.3876872469476874,0.1016315493366787,0.0866349188002866,0.6004409487625818,0.3995590512374181,0.0861583212023778,0.0751844914490076,0.8552801980149731,0.3409859727033454,0.4312219903263946,0.2030665182524851,0.2848224451280283,0.2690850027070925,0.4061349693251533,0.4431057563587684,0.4214380799575267,0.2413642996407156,0.1868369397714868,0.1624552712800585,0.04124124801512,0.1070281785003837,0.1796844181459566,0.3652528195341106,0.5544012854924768,0.4617075378119862,0.6459357388895709,0.5953879244643323,0.3193721977537874,0.3694273396970584,0.2608143612293221,0.3514775986105113,0.7861501769139688,0.4136643723508076,0.1648138753526841,0.2858306761651313,0.5502024504436853,0.3502998638771616,0.420530791309974,0.4004736900882878,0.6263336034379574,0.7882886649561056,0.1648138753526846,0.2858306761651314,0.5502024504436854,0.3502998638771615,0.3868781161341842,0.3244493809131707,0.5190767220964654,0.7346964495651918,0.5326644972599158,0.5132973108920786,0.2430556467920427,0.1746895034049278,0.3251443044148377,0.2301739234279146,0.2440153254530821,0.270215583525934,0.3175542568121627,0.2984986560057661,0.43683038447633,0.5915627408375472,0.4845641638765561,0.8770926307611713,0.5075203865950911,0.2291564505278854,0.401502171866876,0.2506352757825182,0.4583181093848951,0.4799720379690395,0.3546296411154263,0.3988932157060308,0
17,0.6330130559607987,0.0263664433123052,0.2192180768160657,0.1724326000619551,0.026267307287338,0.2266980894494184,0.0384538353382272,0.1874062968515742,0.1881868131868132,0.3080289113135994,0.16016713091922,0.2901483030463537,0.4546627251328482,0.1053889036368463,0.8580047404059001,0.0212385604669658,0.0025651109603339,0.0002427337504781,0.1187507563150352,0.7889684199079048,0.2106199786306916,0.1551381962910956,0.0262673073023776,0.2200859030032723,0.0731047235065435,0.0129938817859051,0.4936993191454387,0.321577057444848,0.4893038299828338,0.3342548444625993,0.3258085360735581,0.5702592079244132,0.0,0.5110690002769052,0.5828332015842816,0.4274351088025923,0.6298993693759845,0.4555378830506703,0.5444621169493298,0.0241294622865987,0.0337686330983468,0.5259947861784091,0.4740052138215908,0.2000011149693142,0.2072262351683243,0.5205145892044966,0.4794854107955034,0.1662936307964497,0.1739824293052314,0.8162164873052933,0.241790371380126,0.3718996434754161,0.2698859794302363,0.3078053909918485,0.4087709799675149,0.4257668711656442,0.464524765729585,0.5193999086511998,0.3502041667177594,0.1502707959340842,0.1282461123406207,0.038492435713796,0.1714048525288599,0.1972386587771203,0.7526995000401366,0.1195611447196683,0.2910061153015303,0.9603200282568188,0.5759697656969245,0.2596685816924589,0.7431431266823044,0.8378778893163519,0.8157667875582137,0.4698412588244031,0.8911875459633672,0.8036310895051619,0.9384676847120664,0.5171936654572303,0.964548093973173,0.5056996714774576,0.8844000213641097,0.5250912943139208,0.7931083624784772,0.8036310895051657,0.9384676847120672,0.5171936654572304,0.9645480939731724,0.5207109928025274,0.2499963249213479,0.3121413879427437,0.6491914783024512,0.3019250376173716,0.3441194354838168,0.6073377015791483,0.4244408583923875,0.3216233835490957,0.4406754241312312,0.809482957891903,0.6100935763099551,0.5176036918529143,0.5864468732748279,0.2627392239794955,0.3083014413292081,0.7579694622510615,0.6859421768446757,0.5864878316786319,0.615011586079579,0.4193679863284641,0.6587580306452319,0.1663182148776611,0.6429270414595712,0.4323364856980891,0.5149142685988208,1
18,0.6679480120139132,0.0634173554191154,0.1943816389488096,0.188825591634155,0.0633158768999477,0.253811408972542,0.0875395446138594,0.1971514242878561,0.2005494505494505,0.3232517743815011,0.1782729805013927,0.2381420796604554,0.3575054315927094,0.2097159543403239,0.6734096352756519,0.1179815190167093,0.0272559296586771,0.0151541163299048,0.0751135257653292,0.6828900317092661,0.3029562067180927,0.4560023376653149,0.0633158769062856,0.2367162150043082,0.1628513430813739,0.0243923967653658,0.2833331271995977,0.4126809419869817,0.3144034669966629,0.5534501652478828,0.5325279363733605,0.6781004348246085,0.25000000053125,0.5799239031978649,0.6468064345711988,0.5035641450042245,0.5241141072856883,0.2325515187897148,0.7674484812102852,0.0409682898515617,0.0931112386500707,0.62235454095774,0.37764545904226,0.2326311510760963,0.2065050668525947,0.5960542806768351,0.4039457193231648,0.1952711030019261,0.1806086603476668,0.7793698661021147,0.2030853301292091,0.2797066047794192,0.2861130503734529,0.278587460806378,0.3795343800757986,0.3926380368098159,0.4672021419009371,0.6188061414501036,0.4688293215288592,0.0508257598671403,0.0276496611764659,0.0056927527029029,0.1604404554923797,0.2011834319526627,0.940416218553486,0.0258049549833832,0.025470138278385,0.2810210235376375,0.0,0.4454206186293339,0.944394506763909,0.5073857309732087,0.4833712676013311,0.4086525199371189,0.4438739404927786,0.471174054770284,0.5737572154310335,0.61533254794489,0.6131682042929187,0.4719497887921684,0.6456270908044884,0.5295661423169121,0.8585162136111607,0.4711740547702836,0.573757215431035,0.6153325479448901,0.6131682042929194,0.377621353376788,0.5095839656445221,0.442704408301543,0.6296402942932693,0.47743430745186,0.5350151315030612,0.6668214973869421,0.4279106380905439,0.4399942459631303,0.7081496468286173,0.699674210399969,0.5214827431140576,0.514695026257424,0.5330414326451524,0.6399844232364055,0.5830018021290054,0.3477493107055211,0.8283330027050205,0.651207935729693,0.5312350778032083,0.583878855970083,0.7028730506374067,0.5176010964005459,0.3592630880865715,0.393930743043399,0.3684646434505958,1
19,0.7001359289874702,0.019466414534872,0.171530993796484,0.1445933559081738,0.0193929635974363,0.2030477234378713,0.0324353009434435,0.1416791604197901,0.1153846153846154,0.2087827531828436,0.1013927576601671,0.152446206011244,0.4271849839950263,0.088930183169631,0.7867464602830725,0.0374439261965418,0.0021492121070702,0.0004493677978233,0.2171401097342382,0.8842379369387713,0.1146660166603753,0.1384458994055268,0.0193929635989593,0.1843313615446833,0.0729099555951028,0.0095328926918315,0.4944186882732065,0.2793534493815841,0.424978393004627,0.2984938147712592,0.2859938698475246,0.5220011808315961,0.1593750000996093,0.4671897551763257,0.5548070361431441,0.3622948816736144,0.5986504522301788,0.4806118457297957,0.5193881542702043,0.0190591289478604,0.0246109448794797,0.6269625235967067,0.3730374764032934,0.1829984118668516,0.1590547214808797,0.6188495858688717,0.3811504141311282,0.1516897936646918,0.1331929571234565,0.7155952183016325,0.2435724616102272,0.3022027500366038,0.3140375654543714,0.3155541695246366,0.4910665944775311,0.5901840490797546,0.643908969210174,0.4132752448655337,0.3276875820038994,0.0782395494229105,0.0666259252495689,0.0046540582055941,0.3170746988706671,0.4142011834319526,0.4453985390695972,0.4562086111169865,0.3225404729647467,0.365555394349537,0.2840837177687799,0.4038293355304309,0.4364959899891146,0.2113037803425112,0.2277679471896405,0.7053405606985486,0.2255170619929178,0.2271397725530499,0.2286301609668967,0.0485507125026706,0.2151287592699672,0.3151595143714568,0.7106301029417312,0.7109592897828669,0.8179204423430405,0.2271397725530507,0.2286301609668972,0.0485507125026703,0.2151287592699671,0.5425074399929081,0.3551521720811311,0.36137160657059,0.6166268543878282,0.3743379531434892,0.9210083297570814,0.2899013084974525,0.3635879285145632,0.5513801866116791,0.2237193363105214,0.1809878760888096,0.2199888124306414,0.0995224440268597,0.2188001448843207,0.3965855437056147,0.2045782204170388,0.5736692079142335,0.7883660369259045,0.5333395171830307,0.2034763737712553,0.4697887903664786,0.2352820607210862,0.5386082649303878,0.1706479193874247,0.2941091299654342,0.1362401429648439,1
20,0.4366758827580117,0.0228083416044157,0.3844677965858339,0.0361999618779848,0.0228079310650783,0.042686256913488,0.0257666509462643,0.3553223388305847,0.0384615384615384,0.0551199617436912,0.0311977715877437,0.2312083239210286,0.448334071754248,0.0522962569684098,0.7846686186180272,0.1927132071904486,0.0421205675875808,0.0024152498213799,0.0797768193378662,0.706495118421875,0.2931644119141672,0.5198921566088138,0.0228079310816993,0.0428965963525593,0.2874504054165513,0.0035306521007707,0.1601177130037844,0.1614646168809805,0.0458353746323934,0.675601967337455,0.6598207982987218,0.9134221843134128,0.098076922811298,0.6908334200415793,0.7066133959539631,0.6779709162792762,0.4379875194131961,0.5224464814886094,0.4775535185113907,0.0233392852147741,0.0267753473481294,0.5308055407063331,0.4691944592936667,0.0402322762990117,0.0393003861101058,0.5345430417083804,0.4654569582916194,0.0366264241916241,0.0356111964621462,0.8220703043874187,0.4344788115643229,0.3729759310636995,0.2812398851137913,0.3234882868046839,0.5148890092041148,0.6993865030674847,0.7630522088353414,0.5356045611939366,0.407674338757342,0.2472195973188581,0.247158369510235,0.0353543785664691,0.2528546590855693,0.3767258382642998,0.2741929380695608,0.6753298927746971,0.7597525299203536,0.3489904019370431,0.6045929207197626,0.9036626425786998,0.27776153250499,0.7378720407031849,0.461937395765112,0.2247720138534837,0.3071358952185939,0.5379207587526507,0.4342397185353208,0.464107979982862,0.4696336495376488,0.5552144970526617,0.3894972370306622,0.4960073668969738,0.3663768194023365,0.5379207587526488,0.4342397185353209,0.464107979982862,0.4696336495376487,0.2719885101560041,0.2137398693162085,0.2235441660327629,0.3579829831170343,0.1264157677828832,0.3167008159060996,0.1803767418140381,0.5031105511730717,0.7354102469328907,0.647243514058397,0.3782399717688582,0.438361526894049,0.3401454098834695,0.3700875719455252,0.3946901512382978,0.563910439437913,0.5749018487225702,0.8640403028147259,0.6342527190855993,0.3849981235264925,0.6490983608335467,0.4443247600227379,0.5866987699594162,0.718295392404719,0.6116769713054078,0.8492472250293914,0
21,0.3931345556846053,0.0241178174182998,0.4276767518289363,0.0259759280240556,0.0241150437185715,0.0286238396884653,0.0253388617091305,0.3920539730134932,0.0247252747252747,0.0333624117925447,0.0256267409470752,0.1655283752546619,0.3851288055607158,0.0278736395009291,0.7466063348010892,0.3188410544186142,0.0564857663680305,0.0023989151140799,0.0994460380600595,0.7543253584008192,0.2457254007793736,0.563526325135485,0.0241150437135103,0.0283242569818206,0.3512619679380828,0.0029508537179788,0.1243730123505625,0.1437629776989994,0.0232618999594171,0.5877922082944079,0.5669314138939378,0.7932733799783556,0.0332031250207519,0.6564082241840952,0.6814901935791688,0.6328144830716225,0.150215035521839,0.387939021808534,0.612060978191466,0.0198113582614383,0.0338756342360206,0.6785304640987997,0.3214695359012004,0.0356994098766656,0.0171304984754135,0.6358182223035359,0.364181777696464,0.0321618793778954,0.0199746889549503,0.7677629513652657,0.4599221007533802,0.3593456226491847,0.2805830880998322,0.28511399946486,0.1423930698429886,0.1950920245398773,0.1700133868808567,0.5012863004126311,0.4376203234785594,0.2165860138677251,0.0903966547326913,0.1679373823040589,0.0669298121955421,0.0792899408284023,0.4885063025130541,0.3811391122811582,0.3646760366020043,0.4506619645821186,0.4337306568927753,0.0893455691309833,0.5074755963706851,0.5470936699326396,0.5584258282034579,0.4949165116422246,0.5731920918373563,0.5159560550068296,0.6230100421226239,0.6785054920099667,0.7193392333217379,0.8047256222246114,0.1649082131675109,0.3867884078043617,0.8455145770355834,0.51595605500683,0.6230100421226252,0.6785054920099667,0.7193392333217391,0.9210608843554486,0.5036406797306983,0.5441086744331215,0.6907297235386745,0.7327205181202068,0.2079385638798582,0.6902383318114325,0.405802311986739,0.1827297400126019,0.2730411678387386,0.8046781836906545,0.6428995455093317,0.6113049816654004,0.6081888065184806,0.4955428046763362,0.5332794527592223,0.5612266948451778,0.7094708980167279,0.9518642784767728,0.6508596680475671,0.7632726067323973,0.8084947972498906,0.4194726478094964,0.4831640147561819,0.5180909148866318,0.5309095559211574,0
22,0.4687551887482277,0.0184016101083863,0.3545963393178305,0.0616048795302635,0.0184466003597519,0.0733360260735069,0.0221419680271053,0.3178410794602698,0.0576923076923077,0.0858636750238484,0.0467966573816156,0.1129673061646084,0.2791203948462101,0.0631802495354393,0.5429864252555844,0.0586455211184612,0.0049822449058815,0.0004755033295033,0.1809568355870802,0.8595639995389751,0.1399490885567212,0.2271354967695569,0.0184466003614624,0.0727614756439237,0.1870341098645352,0.0043840576284189,0.250536401870484,0.1844310768931072,0.110218938872775,0.5581818183187818,0.5733446707866728,0.7932733799783556,0.2550000001593749,0.8828846194087632,0.861708072400494,0.9055978049578588,0.2619421080504907,0.6333106323973736,0.3666893676026265,0.0226858459083432,0.0173722012882,0.7368864720718834,0.2631135279281167,0.0844239295454827,0.0502486883824703,0.7292163929850037,0.2707836070149961,0.0715561474305402,0.0428438408826433,0.3439400334579617,0.2006320924882811,0.3811750189965538,0.2361788464671627,0.3127006613659646,0.4109366540335679,0.4993865030674846,0.6358768406961178,0.3008888940939487,0.238924108839867,0.2013898384356014,0.2177994030241378,0.0305831175650998,0.4220196419341196,0.6370808678500987,0.6924022587304357,0.1866638587221833,0.1479916091274248,0.3583060836401764,0.1576684358608704,0.1152394969957842,0.6621201387871483,0.5389179777107744,0.5754128542692495,0.3830531017531592,0.4216142587039578,0.4706224984117606,0.4481659951345765,0.4146651848014367,0.4399711667392363,0.2052651306465565,0.3511831311525142,0.7311300068906097,0.2889861059289892,0.4706224984117571,0.4481659951345765,0.4146651848014367,0.4399711667392364,0.227488232405268,0.2527852830448198,0.0,0.2729137074245678,0.0159553881667716,0.6853061001849458,0.472059273625358,0.3684660315406739,0.6773763113630016,0.6964281764721447,0.3991865132768082,0.2892479015157598,0.3887421255393725,0.3247853876283922,0.1745534883435663,0.597089185484931,0.8127947635870488,0.8308679436331936,0.5552279475267828,0.2836767527086543,0.5641650805001176,0.3699672938041047,0.5582269134583805,0.3883676420321856,0.974614358501632,0.6975772510907341,1
23,0.3732315076612595,0.0170654747924444,0.4483474372951587,0.0607390862219189,0.0171210058823031,0.0633009038442625,0.0170925305918481,0.4220389805097452,0.0508241758241758,0.06339989004376,0.0568245125348189,0.1853251547784548,0.4857856857846284,0.0313246615343774,0.5606096690012338,0.0302436845308617,0.0126425252253984,0.0005424756294334,0.0419875053469208,0.549335154377071,0.4508606203419216,0.3471014546813775,0.0171210058972117,0.0753990763690302,0.1749096506586545,0.0043196071287989,0.2662117734315946,0.1828060893526091,0.1203158922110335,0.6327161874383979,0.6519632161268615,0.80870751484833,0.0,0.8826968926870915,0.8535825404678941,0.9179879997879384,0.0267281061802426,0.5203508915692263,0.4796491084307737,0.0182667969234619,0.0204751523566908,0.8338074426526616,0.1661925573473386,0.0946644069561024,0.0432432303048456,0.8110281275752984,0.1889718724247014,0.0790592608427436,0.0376643809537239,0.4951419211252074,0.4607277986656852,0.3079344751817473,0.2653499233932258,0.2713854136540692,0.2788305360043314,0.3496932515337423,0.4765729585006693,0.2047852717626805,0.1182205000551801,0.0844167676469111,0.0363604146348025,0.0261185027679928,0.3061103018341869,0.4990138067061144,0.5371283457984485,0.3554400624696902,0.1185067616729177,0.1384010532874454,0.0592188092432683,0.306425233821387,0.5091645470045852,0.1444586819314835,0.0940488651357528,0.1261858660272789,0.0522095394942419,0.0919799819494879,0.1824298523053203,0.1194835393518665,0.205517836380555,0.4955372065938003,0.3777755735360282,0.5692345254408553,0.3396755645573376,0.091979981949488,0.1824298523053207,0.1194835393518666,0.2055178363805552,0.3935892691332964,0.684831274085303,0.5397376950588728,0.3080588151065084,0.3387451641560755,0.3598125450615203,0.4445558907370394,0.4228363193283734,0.4096805351559198,0.3121424792835641,0.6014833790507897,0.8781505918753886,0.8820199425868129,0.8807009745534576,0.2366447431507683,0.2799987265889216,0.8140322831098206,0.0792560714666017,0.1205568727797276,0.8661324326347339,0.0299166687754022,0.2850377656049936,0.4515024402207703,0.4238010094277485,0.4730380046295261,0.393044200901767,1
24,0.6958708666530082,0.7250672603309044,0.2098563960240499,0.7545064819464519,0.7240358802317964,0.9573960825941922,0.9235658919143668,0.4182908545727136,0.3090659340659341,0.3891712461170034,0.7662952646239555,0.6855643164850985,0.7149306431229486,0.3713830634457127,0.2242332829923493,0.990299723295182,1.0,0.5822245061772964,0.0131924983511016,0.258263305609929,0.7073630157944751,1.0,0.7240358801499975,0.7663243914614288,0.6536125300592641,0.5790627434195664,0.0391616444284073,0.9119557220304492,0.280430240375957,0.6530594420058994,0.6388520140826092,0.7421555247546481,0.2693661965433538,0.643747526687438,0.7303240155222428,0.5184842449117144,0.1361880058269122,0.3664372962402639,0.6335627037597362,0.5764099182173595,0.9196619136705232,0.8078356388603354,0.1921643611396646,0.8259053854696238,0.5851264034361336,0.6665200773973803,0.3334799226026197,0.8067649710285772,0.6975785595847961,0.5609543241675696,0.0712651724732778,0.0191399137050192,0.0176131706535806,0.0193264615399898,0.5062263129399025,0.4049079754601227,0.4792503346720215,0.7418225256772107,0.6102990766514206,0.0069104417931803,0.0058188556452011,7.28175245004323e-05,0.2011653587707344,0.1940828402366864,0.8900982535598361,0.0723031788177843,0.0661791069265489,0.393514392726343,0.0810327383187656,0.2255936071488929,0.8896567505686632,0.6444146615216948,0.5847144362378514,0.3909622741696344,0.6898726134078548,0.6352356207573364,0.5894072325381854,0.3892184029632797,0.6764973738192721,0.6482460227716205,0.3646463609836238,0.3448403384515203,0.8631740908861929,0.6352356207573369,0.5894072325381865,0.3892184029632761,0.6764973738192741,0.0737655912765465,0.1984965392734799,0.2220289233233687,0.5781789407173791,0.1690274587829888,0.4096137803889297,0.7652060472260249,0.6611777742179028,0.4805108780983936,0.8177444706071546,0.7548161655339649,0.3705520642891846,0.2263823753281237,0.2898028010672201,0.7720698335055474,0.3998646526170785,0.2350192565989642,0.7262049011185019,0.4052283786507714,0.4248226934804281,0.4357699335546,0.3571918988644401,0.5671379318062355,0.516894386385245,0.4654026074857386,0.4589968536122651,0
25,0.3655929780886826,0.0009376894980962,0.4563050634804592,0.0,0.0010033314223551,0.0,0.0,0.4152923538230885,0.0,0.0,0.0,0.0,0.0929566226479051,0.0021237058667374,0.5666550643312224,0.0460708422782537,0.0173225984617333,0.0011411426519789,0.0459622604867829,0.5720870898566396,0.4272203938746518,0.3909877745481472,0.0010033314379864,0.0,0.2601960552527541,0.0,0.1794317961650448,0.0,0.0174273210007754,0.7334754633902693,0.731494709057383,0.8750789023226446,0.1992187501245116,0.6204265705292684,0.6548736150172898,0.5861999392139268,0.6612275300209705,0.5009946909947235,0.4990053090052766,0.0033339859878679,0.0023591931840884,0.5007641364884466,0.4992358635115533,0.0,0.0,0.504179722132412,0.495820277867588,0.0,0.0,0.5999647294085237,0.6011118750005463,0.1335744170529684,0.1015036767421029,0.1247940384043412,0.6437466161342718,0.6993865030674847,0.7630522088353414,0.4116005168624419,0.3343153364152493,0.1234263309794506,0.1119144684992125,0.0127865110594394,0.492505051454349,0.5838264299802761,0.6241513658001884,0.3114496259630294,0.3258696460476737,0.4489203695694181,0.3260686262454573,0.2883618962605159,0.6125620791462821,0.2826631924974909,0.3263744597870065,0.923922622453186,0.3655586286025413,0.301377704075435,0.3040694506472968,0.7219175527835469,0.3903657960152277,0.730976480526781,0.9585199240115404,0.254780313317985,0.8815094516250609,0.301377704075434,0.304069450647298,0.7219175527835473,0.3903657960152278,0.1840812091465735,0.2256620336994637,0.1861974808870044,0.2869018631345473,0.112043722032857,0.5900030603320034,0.4403730602092452,0.5115600698310842,0.1558855129781354,0.3185214897631429,0.2744074370083296,0.1772507843576428,0.296436654869583,0.2548216315671657,0.2254651211942406,0.6792442969263643,0.8506124914907506,0.812859749191233,0.5877311584621059,0.1535379113464227,0.5345654927917168,0.3520066403771145,0.5408745406832773,0.1822201670972244,0.6667806335203597,0.286570803529561,0
26,0.4186888088711145,0.0013664914782292,0.4020053897114829,0.0212371434013304,0.0014403030554347,0.0252765005291305,0.0017552969767825,0.3703148425787107,0.0219780219780219,0.0318403809496316,0.03008356545961,0.002731984311207,0.0450819671545746,0.0095566764003185,0.4396681748720542,0.0369982045051087,0.0083661056827405,0.0004787702709633,0.075504272868704,0.694096355964262,0.3057258818350687,0.2917740223976259,0.0014403030602844,0.0270554249779336,0.1710367509859843,0.0008010485991187,0.2715338599175261,0.0531389034177396,0.0688318665963904,0.6367824323573524,0.6525882498572823,0.7699863569503413,0.202380952001488,0.8173572070546808,0.7950288377969927,0.8513986218231118,0.4617917669448146,0.56346680110778,0.43653319889222,0.0049420064120295,0.001315340933868,0.6659369670321449,0.3340630329678551,0.033739226614086,0.0167786870985096,0.6583921589352142,0.3416078410647856,0.0273005933898643,0.0133789936120451,0.4047245900812692,0.263681125373369,0.2246149592131738,0.1403047978033293,0.1852637121476664,0.7119653492149431,0.6723926380368098,0.7336010709504686,0.2748818126100382,0.2340835796004954,0.1950771779987557,0.2192777822024034,0.0337937477529681,0.7227573892204314,0.7396449704142012,0.4359208607906791,0.4687144113790895,0.3690022508633359,0.1805991061749589,0.2732520467934815,0.1823129457036944,0.4516683989655449,0.262126045235945,0.2391336111240681,0.5405744224175617,0.1727981389146693,0.303972674805411,0.2833404296855317,0.2603788921394641,0.1987776050679234,0.2199217530188671,0.5261631803284228,0.729150511354405,0.4752120441994323,0.3039726748054099,0.2833404296855314,0.2603788921394644,0.1987776050679233,0.3232486039979921,0.556882906945625,0.4425316502854955,0.5986488648811786,0.4032939320890865,0.5116487368560589,0.4049849987522101,0.6093906639260216,0.487164036478162,0.5188315274476806,0.3075164817691685,0.2652790043451446,0.3742657416260309,0.290903229316838,0.2038809569325486,0.8728659596466399,0.7413810390602082,0.775033830781113,0.3987733095281903,0.2453156416636857,0.3986020500273308,0.3280498592407509,0.5079485451854225,0.1566571712540116,0.5963082011984512,0.1751555392580723,0
27,0.5911922225465405,0.7307685218621386,0.286353720585171,0.7213391525879244,0.7309370247723428,0.8548901853950526,0.8707280884995185,0.4726386806596702,0.0357142857142857,0.0395412762496795,0.6598885793871867,0.5622765196521877,0.6159949909468202,0.2867002920095566,0.0,0.6943589373509159,0.8681229196299478,0.4910413114548442,0.0096400711468522,0.2014712474207655,0.7627462435840753,0.9783728175152662,0.7309370247274037,0.7099892617679363,0.713856185804842,0.5450298366856793,0.0299058603175309,0.9022037228083776,0.2359170036684106,0.600625000226846,0.5875978982473119,0.6908882026550918,0.050595238531622,0.6611942441709382,0.7689269360919522,0.5022799901361088,0.1024468636849313,0.3206975910998362,0.6793024089001639,0.5570922994918122,0.9535781610758388,0.8575603781758012,0.1424396218241986,0.7860441438025362,0.5153288688450464,0.6624193966967545,0.3375806033032455,0.7709095497147646,0.6698168614587457,0.2647803166304972,0.0313955445705757,0.0336224476125846,0.0090233981592593,0.0196143791009438,0.4195993502977801,0.452760736196319,0.4939759036144578,0.3895362682063233,0.3322031612120023,0.0189035795283626,0.0130841089165861,0.0006697101601155,0.2873141926287925,0.3353057199211045,0.4116672682969668,0.5004491831517274,0.5801688277207037,0.7520204934722876,0.6587596285524289,0.2223456692044889,0.4115728346738417,0.2383528161707707,0.2174766064385303,0.1504161360506475,0.0827878527816831,0.2008512576572592,0.1985937410545309,0.2327221496234338,0.1325884557441803,0.1143524727730135,0.3507839965444953,0.9424002533591364,0.4473591401041161,0.2008512576572582,0.1985937410545309,0.2327221496234341,0.1325884557441806,0.3555508122566916,0.4520440077340882,0.2735931883231328,0.2249730564730095,0.2027955990793633,0.8033004517473035,0.2594808535816095,0.1994543428654215,0.4130886512226729,0.2414377980695636,0.2423186777655019,0.2940675978245753,0.4316197968801453,0.3412625659753076,0.405750052463916,0.6315205469279673,0.5974460392275859,0.821577542804091,0.5106939628930579,0.2449114323104365,0.3821874305900451,0.3593157118519393,0.5168631108547481,0.2039696602498526,0.5379510579464184,0.2333405616417732,1
28,0.6629050144401967,0.7230976107995426,0.2339113621494185,0.7694719402027335,0.7221150750575731,0.954848050306386,0.9015428986263474,0.4490254872563718,0.1964285714285715,0.2394574991253031,0.7442896935933148,0.6343908665189613,0.731747773361557,0.4672152906822405,0.1923296576728146,0.4314511540997431,0.5613716871447773,0.4958942713201417,0.0091057305863686,0.1855704836608018,0.7572977636249822,0.9117404192092412,0.7221150749937212,0.7917978402200359,0.6300867646773056,0.5951703130828905,0.0432005442629106,0.9163738195055426,0.3012370461043406,0.7100930564958267,0.6915172301688256,0.8500709959658916,0.2328767122705479,0.6643235958685101,0.7292911104042554,0.5739837043315132,0.208989315707508,0.4090008383790974,0.5909991616209026,0.5968159646947032,0.8934344219029081,0.7226653846205698,0.2773346153794302,0.8139701474043395,0.6512444434837779,0.6328284966289689,0.3671715033710309,0.8059923573490264,0.7294900566885765,0.5517984947336572,0.0251772075880352,0.0230122708740386,0.0005180372169095,0.0112050827154746,0.2387655657823497,0.4061349693251533,0.4431057563587684,0.4160898809732941,0.2875700481907027,0.0078838440946664,0.0047127430203317,0.0002088192019629,0.0951239760036339,0.1796844181459566,0.6338956217413372,0.2216301155402515,0.2630997631548462,0.519298971106216,0.2779166205077314,0.2801287512386544,0.6425863983822888,0.585202443206565,0.5700262757264413,0.4045540231524893,0.6114944257905159,0.5854568895100181,0.6245018419863225,0.3184714644406523,0.6589779641773844,0.6433205567237014,0.228228177188533,0.5637122897846516,0.8699926710035044,0.5854568895100194,0.6245018419863222,0.3184714644406526,0.6589779641773844,0.3856193571783534,0.435503278067844,0.5262609590533689,0.8603477474347393,0.6227868440155202,0.3463362880062141,0.5313867028233408,0.4295970632072581,0.342222165942926,0.376499459781871,0.7784812718050272,0.4425352753616988,0.1905529735168722,0.3325779213389747,0.5528566217123159,0.5854580680762774,0.4371320384069988,0.8099944389894606,0.4371111371191639,0.4968621158966091,0.4914367183358372,0.3749838472837154,0.7011928113507967,0.5274910855129163,0.6791641017310495,0.8037783313532255,0
29,0.8247679198731122,0.7302658485978859,0.1320262582483359,0.7227714585175921,0.7291906499266289,0.9888189476473752,1.0,0.2961019490254873,0.6208791208791209,0.8741214360984892,0.7710306406685237,0.7588391391083934,0.8488679245950123,0.3358109901778603,0.455074337459453,0.9191703447821356,0.8456090142795109,1.0000000000000002,0.0150153271449168,0.2709954684715316,0.660848783641044,0.9743550307664872,0.7291906499275967,0.7094435951715496,0.7125802668826342,0.5433933017186752,0.0300873674013606,0.9017196165011304,0.2361695377933483,0.6118113226107894,0.590321822613087,0.8033438789412459,0.3079710141924818,0.6379540639450774,0.7183679957297004,0.5232341663019291,0.2385132185894587,0.3834889848304148,0.6165110151695852,0.5894924751629596,0.9166446530610804,0.7115995962365949,0.2884004037634052,0.7255878070967988,0.5877947565291108,0.6026233485768375,0.3973766514231624,0.7411598719606063,0.6980705942829624,0.7056488802702021,0.1635946972072272,0.0173376017693848,0.01671988252978,0.0176311910301399,0.3459664320519762,0.354601226993865,0.3868808567603748,0.6947193366671741,0.413790143591127,0.0068020628162044,0.0063093222751657,5.927416849431325e-05,0.144777031154551,0.1650887573964497,0.7674134837778276,0.1931203016644125,0.13731635407442,0.2373884041177985,0.0755421463426173,0.1754394026120486,0.7713450491517206,0.4050125607021818,0.4247946613730705,0.5336663882403909,0.410425294305753,0.3839492100491054,0.4718062392475571,0.571469815034371,0.5654532149089214,0.4686208669586075,0.667951066294815,0.6048384812970802,0.8636384454124723,0.3839492100491057,0.471806239247557,0.5714698150343713,0.5654532149089178,0.7542836928374663,0.2546832670212227,0.204502348720265,0.4215303993430067,0.1901325464682229,0.2882092891895332,0.4531711192700928,0.4806225946875272,0.4102216986218602,0.4627305922562056,0.417677939543336,0.3549949163109767,0.4463965882978106,0.4061196716200193,0.4472064361202848,0.459648801623524,0.4197542792826522,0.7882259166721073,0.8050000023100361,0.3376400986358179,0.6076528475487906,0.4912820640634673,0.3578538987794132,0.3152561237219963,0.4201345894121039,0.2175328208728753,1
30,0.391009077771546,0.0652461183694081,0.4300849248644042,0.0932517671829123,0.0651925609775773,0.0991138834520972,0.0689356033063061,0.4077961019490256,0.0480769230769231,0.0615686727732155,0.0548746518105849,0.1454748487002449,0.3016552601549719,0.1213166976373772,0.5216289592476944,0.3361606706997957,0.0483766752482068,0.0105024000585435,0.1230253173160366,0.7931356261966581,0.2034042370741944,0.5404366831969419,0.0651925609888077,0.1077331655361624,0.346892394295579,0.0136947648291055,0.1264824790926853,0.3289319226955618,0.0763499174763656,0.4437952335106846,0.3994490365858975,0.6493860836384888,0.0,0.6233152863972768,0.6579607724891525,0.588438007070244,0.3267720102840683,0.5085224249275937,0.4914775750724064,0.0606119706959014,0.0763333011586599,0.7758013442519179,0.224198655748082,0.123968979375976,0.0747282717636746,0.7390929384994501,0.2609070615005498,0.111719774914732,0.0737176965766064,0.800037243993398,0.2685984768035489,0.0668631301515064,0.050175519038785,0.0538030976109879,0.2853275582024905,0.4638036809815951,0.5060240963855421,0.4781211816006339,0.3691585633529938,0.0516318156033727,0.0267661063302806,0.0056003553551479,0.120811991917673,0.2169625246548323,0.6696354873084945,0.2249970246836714,0.2749239926034462,0.9877070143937212,0.465762891125338,0.1807267434517761,0.6654345970954488,0.4961627660709265,0.4407452195888642,0.3385243821041016,0.4206726191885852,0.4531862117812749,0.3938000518538332,0.4550151815103265,0.5096855999076612,0.6583149529396595,0.5956112795401028,0.4081444719353355,0.824746660366512,0.4531862117812753,0.3938000518538349,0.4550151815103269,0.5096855999076636,0.5469230291965295,0.1867245396404107,0.1584907558943478,0.470093966692439,0.1394803360236612,0.4239330405186391,0.5814257957540144,0.4892841855904379,0.0729603335753732,0.3469736874757155,0.4510914701411355,0.2539890758791017,0.2347450236003199,0.2749355156142302,0.4532828140956166,0.7135707583035629,0.6221114309727397,0.78621738131899,0.341289577578475,0.2602206005552364,0.433305628856638,0.3122719137566689,0.3998483231547752,0.2981879893940813,0.5444509663752849,0.3116409478720442,1
31,0.6594750950278174,0.6187331005009549,0.2291249776507954,0.6435860018255732,0.6185861983030231,0.8040870494021931,0.7754194562592853,0.3684407796101948,0.1950549450549451,0.2589725903275879,0.5974930362116992,0.5694316150035866,0.6717213115019175,0.2774090788425803,0.1437908496211516,0.6397107168769065,0.828659312261843,0.6679259364769369,0.0091232614489023,0.187442989608158,0.7604383746198429,0.9712591187656696,0.6185861982243525,0.6486890560858224,0.6537917558338258,0.4277155823078944,0.0391318645091097,0.8632031351675766,0.2350339282398401,0.5926988643689765,0.5852980802841562,0.7585266026805313,0.0452127665282579,0.7233229994036199,0.809769984991006,0.5932632047854844,0.0732291315096838,0.3319588349147528,0.6680411650852471,0.4766232324910996,0.8026553405441704,0.8587697110875587,0.1412302889124413,0.719872744960854,0.4689058097467894,0.6851059173562789,0.3148940826437209,0.6934896883795247,0.5828150159800286,0.384556344984466,0.0621519302371247,0.0384953662429793,0.027146283920205,0.0315858070506303,0.3015701136978884,0.3214723926380368,0.3507362784471218,0.3105781129836313,0.2373177520815195,0.0259769745914141,0.0164060839229035,0.0015451245503126,0.1980326739031687,0.2268244575936883,0.2479853879206831,0.731768855376727,0.7087157168490767,0.342811102850116,0.6476326766715619,0.6460882707883697,0.2530052474426449,0.1958977392998643,0.3101801768273944,0.6924798046495007,0.1799989618053082,0.2492813882969774,0.4281764128508658,0.8855911090141135,0.4926252949523721,0.271277930049724,0.3040382973533997,0.65511779797013,0.5580168667008916,0.2492813882969766,0.4281764128508666,0.885591109014114,0.4926252949523739,0.7261493314389471,0.255125208417466,0.1871715386668929,0.3826138812412963,0.1415908447921846,0.84123719287017,0.1713580356227846,0.2418558938374783,0.6618405593092493,0.3198962277775377,0.2329659235002399,0.7114384843675705,0.9714958158589128,0.9085907622286804,0.2396858583333518,0.4288830796855988,0.6852810367260903,0.7781313048310357,0.8662240612832687,0.6980722069480116,0.9649724093548117,0.9777103899525492,0.4293527172430503,0.137261790972897,0.4581313412103577,0.1623919225875996,1
32,0.3358045412189028,0.0161679241661987,0.4891612004016726,0.0231679651996788,0.0161794571998562,0.0218990270249971,0.0147795642326072,0.4497751124437782,0.0315934065934066,0.0366328476916258,0.0289693593314763,0.1562664578412271,0.2704918032484319,0.0132731616671091,0.5574660633181466,0.060204586816994,0.0178040958812472,0.0006241491659335,0.0584269287316124,0.6332786678215556,0.3670983334894591,0.3948642347971536,0.016179457197948,0.026996946010045,0.2919832566641061,0.0021553145537999,0.1571775329270554,0.1158102719857396,0.0327316655409688,0.6938953487927492,0.6617378612637902,0.8153945569218173,0.1180555565737847,0.7068525078512837,0.7183002515958978,0.69903011563096,0.1225095389189527,0.4414959377484927,0.5585040622515073,0.0150214194114805,0.0221192251396376,0.7058819005683447,0.2941180994316553,0.0358885315372238,0.0143599241615119,0.6750458225262917,0.3249541774737081,0.0311238344019136,0.0151440025829284,0.7456882707540244,0.4120544391048221,0.2955535928061983,0.0986436075437311,0.2125858412363612,0.6231727125067678,0.7815950920245399,0.8969210174029452,0.4371703733199042,0.3200267317384213,0.2146822081405162,0.2317426151432859,0.0488746299590172,0.3045439594004041,0.4437869822485207,0.2499001660446768,0.6741764315477712,0.6522695174167203,0.3963100062887661,0.6404414588620932,0.8769939986033293,0.258891050119343,0.3860047067657358,0.3263274534816245,0.4943927337642665,0.3262310574305904,0.3106397783575383,0.2737510601834785,0.3868164422796874,0.287554548676491,0.5507554347623058,0.4661523877874343,0.3981380226767969,0.8010999632864281,0.3106397783575387,0.2737510601834783,0.3868164422796878,0.2875545486764911,0.2995669935189144,0.447958970978299,0.3740457544702521,0.4046083195218767,0.2977684936629163,0.3785774275439305,0.2358913260790862,0.3325246326665729,0.7706095904122607,0.4545009868573956,0.4978348135174473,0.517776144569408,0.3532045859424603,0.45665046893971,0.4773246862377011,0.5504506722759644,0.4647832379652807,0.6427201605818819,0.66336852709082,0.4248668161497043,0.5827725358031611,0.5409940498140516,0.5638391023348411,0.6569044676069611,0.6248469669467078,0.6726954318972914,0
33,0.7719234687335397,0.7092263124796856,0.1601272642240799,0.7325264379155922,0.7083563964690428,0.9747331769073384,0.9457993356346984,0.3313343328335832,0.5741758241758244,0.7824431975970578,0.8662952646239555,0.7741891309349986,0.792943843793002,0.3400584019113353,0.2650602409086845,0.8749674374581208,0.661949287590487,0.6786763790658312,0.0194303564100541,0.3311812282725825,0.6140440138409453,0.9369227036640236,0.7083563964558715,0.7391030446652304,0.6624637403699482,0.5485211545654018,0.0377080403193226,0.9032316741318108,0.2662262717769589,0.6913539656922664,0.6775762422340729,0.7833863877821723,0.432203391145127,0.6947123779690081,0.7438311205603403,0.6282118171476094,0.4248307701418894,0.4356070111821531,0.5643929888178467,0.5985663878788685,0.8616000222304117,0.6186192710308474,0.3813807289691526,0.713387614104471,0.6568217264399913,0.5729703089476854,0.4270296910523146,0.7365643476028693,0.7220275356609804,0.7274331475276765,0.1567481702390145,0.0,5.541866961167319e-05,0.0,0.4856524093123985,0.3496932515337423,0.4243641231593039,0.6740799731418912,0.5590872582800946,0.0013726460361329,0.0008330238330005,3.517754806784169e-06,0.2246604952774775,0.1992110453648915,0.7171506271685231,0.1343842556901827,0.1366080978927107,0.530478037107392,0.172186282984733,0.2452323016964525,0.7103179940832965,0.7529152612151737,0.7036531311683832,0.4418832568579693,0.7258767278610492,0.7839121964787341,0.7611350157696136,0.223570998445074,0.7471456160613719,0.5042746583730263,0.6729649821116042,0.5244685535637335,0.7792522681602382,0.7839121964787328,0.7611350157696146,0.2235709984450744,0.747145616061374,0.4082174561567452,0.2899389862933664,0.2306751111867399,0.3980226843624398,0.1711379675515122,0.3016539282841022,0.723536747269611,0.7885156051165918,0.3175867883857491,0.7380894323783542,0.6967274678345344,0.5604395261893387,0.4772827058089238,0.5560524428962935,0.4905630805732877,0.8339862455127742,0.5186172719214669,0.7783720573990094,0.7334840359612638,0.5707254831087313,0.5776718169326693,0.5516386853772273,0.2953530873348287,0.5685947162936966,0.063660854986271,0.3767178594943171,0
34,0.7354119213118229,0.7263206018402223,0.1864382253783091,0.7712676056297338,0.727255168399091,1.0,0.9450512607472192,0.3838080959520239,0.4423076923076924,0.5749043359951074,0.7626740947075209,0.7174150356921488,0.7279684388721702,0.3490841518449695,0.2931121165813695,0.6462054879938022,0.4380330107955482,0.4421460603789587,0.0223473337424026,0.3646245003533044,0.5840298542725525,0.8738534525734233,0.7272551684288967,0.7856220138596973,0.6401302185074114,0.5949605997466205,0.0414441518639967,0.9163170671181184,0.2940332777926936,0.6600339864763155,0.6688273694429979,0.815154428327008,0.1992187501245116,0.7420927489370674,0.7549950362846054,0.7244695532589502,0.4269015101434923,0.497066222776947,0.502933777223053,0.6446042546747501,0.848351391297383,0.6438809943053331,0.3561190056946668,0.770311248784021,0.6860779243119296,0.6148873554252531,0.3851126445747468,0.7948791549058487,0.7369275224565943,0.5097888017191303,0.1341368164574322,0.0192465891011035,0.0119713894276509,0.0150276542787556,0.484569572279372,0.4993865030674846,0.5448460508701473,0.2857968230917274,0.2284735932116099,0.0071049865663485,0.0035925439961985,9.14616249763884e-05,0.4940713938881318,0.5463510848126233,0.5669335702433205,0.2113787018322265,0.1480993426763709,0.3328799519525355,0.119904185937515,0.1885822212708,0.5527426339508799,0.8318933638522872,0.848170803159547,0.3514502380727844,0.7264306373141753,0.7691672047600375,0.8451900567376085,0.3388203899603342,0.8131381815491391,0.5402988894207211,0.3640029605138994,0.3444467944512575,0.2289710482277004,0.7691672047600366,0.8451900567376087,0.3388203899603345,0.8131381815491372,0.3336437295280523,0.8784472380795456,0.8913866036240368,0.6274501058017454,0.8275061945622901,0.2791039523495785,0.5932632681015343,0.3303254825744011,0.3137146605185953,0.3804332346990535,0.786271417336392,0.8257489293415456,0.4575240439779729,0.6243631377920186,0.7092404792313911,0.2005556170077005,0.2173959855046237,0.0132337046612983,0.4255552252069872,0.8336767556082776,0.2629663338038152,0.3778117757575432,0.3659713127886114,0.743347450736404,0.3650901279646251,0.5416976814008261,1
35,0.5246736768438411,0.6832121676794467,0.3374179424579834,0.692104176013641,0.6849394547494005,0.7853069842733467,0.7804502998230415,0.464767616191904,0.1730769230769231,0.2072179064359596,0.5704735376044568,0.5558449733010655,0.6762295082815716,0.3485532253782851,0.0783671896971022,0.4627781712432751,0.5970265921842688,0.4304624976355511,0.0092200305108611,0.1909036173536983,0.7626954316191156,0.9211484197289892,0.6849394547304877,0.6943513545066285,0.6809036578665735,0.501678807517221,0.0347878603764248,0.8888633494608289,0.2421352532922846,0.585485190520333,0.590321822613087,0.813212968954619,0.2931034474331896,0.6835664329444318,0.7593748486400236,0.5755441311301834,0.1138173110832183,0.3642923366086379,0.6357076633913621,0.544200204382943,0.8713508126888836,0.8138549343366683,0.1861450656633317,0.7519143022782345,0.5259365549798797,0.663059664050718,0.3369403359492818,0.7416240657147153,0.6433841650525334,0.3162764035815773,0.0765241826227171,0.0088664923868278,0.0090263824521561,0.0096378829094637,0.5094748240389821,0.3496932515337423,0.3815261044176707,0.2385530974660467,0.2038295054628392,0.002465167871526,0.0014788046574235,2.339306946511472e-05,0.5426280093354009,0.4003944773175542,0.4918196168238061,0.3811702504948757,0.3494898548829395,0.2352856710184831,0.2544965733174349,0.1411472205943869,0.4786215282949675,0.4178190358252749,0.4865080012659535,0.3948739984607344,0.370543813680676,0.3412877486634959,0.4297281222982436,0.5085791887480995,0.4287610629178852,0.701184038635337,0.639786751593622,0.4940296861890743,0.6052935430235179,0.3412877486634948,0.4297281222982438,0.5085791887480999,0.428761062917883,0.3232486039979921,0.3261906298387342,0.1605695783981317,0.1561682999827157,0.0951596518846698,0.3882576267097631,0.3917621984721436,0.2823146049762838,0.4414002865102141,0.2630013316059478,0.4692913742224011,0.4731806653996018,0.4124353978649595,0.390111548008211,0.6018277377288407,0.2914139651103099,0.6055508917218914,0.7013352906051264,0.3220100352730763,0.432343759702165,0.3066797060749666,0.3048157947492689,0.8851783314046295,0.4745893896575065,0.8227433517669822,0.6894140367309411,1
36,0.3515300407194779,0.183072129812964,0.472943364466973,0.2732881970841269,0.1828942035850826,0.2775559959990213,0.1872654936724605,0.4347826086956522,0.2651098901098901,0.3284476130489446,0.2192200557103064,0.7530790623943195,0.8436768149703432,0.2139633660737988,0.7466063348010892,0.4777425133290371,0.0537505399330251,0.0041630635024814,0.1585835590282048,0.8392691811456444,0.1601844805922432,0.55612053340304,0.1828942037130301,0.3163067392358718,0.3645744607982217,0.0739626176369546,0.1181999583024077,0.5832823959506501,0.2038717909912225,0.4344025983225364,0.3964562556928491,0.5969511829850764,0.2405660375253537,0.6213857956614515,0.6530325261095109,0.592588205501801,0.8925305288940923,0.6913995284748063,0.3086004715251936,0.1882851590420522,0.1788210862461479,0.3606749090189822,0.6393250909810176,0.2453354947797515,0.3312598296009702,0.4304405416991275,0.5695594583008725,0.2444737902554554,0.2948977700485354,0.8649230204313871,0.4215542099483187,0.2262321287574366,0.2085587914990211,0.2208571717044634,0.2983216025988089,0.3717791411042945,0.4056224899598394,0.4277231897127197,0.3433894127601133,0.1004153393745152,0.0607252819626245,0.0117870395282263,0.1184624782669987,0.164102564102564,0.8868582123282112,0.0367885209089371,0.1337867547564668,0.5194638321556913,0.1717107650019526,0.2696714212507824,0.8870686515200541,0.6190734487502725,0.6917647757846925,0.6818680816532298,0.876933858161087,0.618045215239485,0.6803018509469076,0.3787456446589983,0.8572110912751496,0.7909573436301609,0.412743944365633,0.290827968037716,0.764990241324679,0.6180452152394847,0.6803018509469078,0.3787456446589982,0.8572110912751468,0.2869560325111224,0.2967918478860883,0.1779962004285639,0.3190267487757027,0.1935972748077643,0.39502025883387,0.7536809686911004,0.6799673252534906,0.3995123721656426,0.7483927691046997,0.749201106369462,0.6222705599583715,0.3629270561180723,0.737829761869352,0.6582824391189868,0.6825002107486394,0.2533309528567136,0.8546178156599961,0.6700377979645746,0.6451689234387575,0.4119175722936671,0.5268485313997623,0.7528424507474785,0.461956829350786,0.5663142020322344,0.5793854191485999,0
37,0.2397217550764228,0.1463727009275314,0.6055941769860463,0.2060223679392068,0.1465810815085229,0.1857966782160176,0.1338916896593321,0.5337331334332834,0.1456043956043956,0.1610305278344404,0.1481894150417827,0.7979737782393658,0.8526679524160415,0.1810459251393682,0.4016227179691426,0.102542123753464,0.0259832991655356,0.0002647856053332,0.0683052451531128,0.6715814072756702,0.3294819273982845,0.4490600075741927,0.1465810815355145,0.2328146743939027,0.3893714658238897,0.0474603339913558,0.1076285358082421,0.5140130573377122,0.1407612743716866,0.7675401071358326,0.7594692516598472,0.9292152172461334,0.0643939387902462,0.5427900839270161,0.5941269933558528,0.4917635607969846,0.5381072820845163,0.4993045072381726,0.5006954927618273,0.1321350280757179,0.1717933291628079,0.534263368146584,0.4657366318534159,0.2130369048446369,0.2179098462099556,0.537296473270065,0.462703526729935,0.2010397462659671,0.20494536449481,0.3991942422952859,0.5360330412008926,0.146898397646932,0.1678506380698301,0.1611346036243193,0.194369247428262,0.0635582822085889,0.0693440428380187,0.3414844570406892,0.2444697183357653,0.0018543567966174,0.0003831591773843,1.9523539177652137e-05,0.1557414281910311,0.0530571992110453,0.7578711230839633,0.1924381911894779,0.1867742621202532,0.2355712938595076,0.1414268070535672,0.0890206266473057,0.7377404067691244,0.3934359428505332,0.3056044024609631,0.2859849245375356,0.2536999772225855,0.426984393015734,0.3095320494478772,0.1591306688630491,0.2377601707977685,0.3027803195610565,0.387184328702679,0.6244894174891418,0.776591771077987,0.426984393015735,0.3095320494478766,0.159130668863049,0.2377601707977683,0.2828095886577437,0.2386038240317969,0.3214544910694197,0.4507948441321979,0.1846203143522937,0.3239595517117477,0.6200419311637818,0.5001809131469803,0.0455642220763743,0.3550574340288976,0.5400836041790181,0.3106182500273858,0.0934776379780806,0.1887559506931754,0.3129115308606172,0.4692477645968628,0.7845480358105623,0.2699302365299775,0.4619193746932971,0.347796938516916,0.4769366154832997,0.273024901714194,0.4964618793975056,0.3424493915000928,0.4727946482718952,0.3398054512128649,0
38,0.4211096898963296,0.083502485915044,0.4002708142092649,0.1646278424408788,0.0837051943292459,0.1793202420481627,0.0910067702262696,0.3808095952023987,0.1346153846153846,0.1770789267709435,0.109192200557103,0.5687080660033098,0.7663934425907212,0.1040615874701353,0.5451411333278655,0.1410329657156199,0.0152081150073838,0.0006029140464434,0.1592472078690468,0.8404883402510982,0.1596245578517871,0.3726975256836207,0.083705194331568,0.1965488535799603,0.2615674403692405,0.0260149401106565,0.1783870140107308,0.4223015925492277,0.179016992796807,0.4572420836450578,0.4753908007900752,0.5674037881973423,0.1574074073483796,0.8051860082825222,0.7995629734008796,0.8123254435269271,0.3032903132107125,0.6107482330629653,0.3892517669370346,0.0841790300088354,0.0881636723424522,0.6023470326573339,0.397652967342666,0.190948546552738,0.173681091240039,0.6074333774855002,0.3925666225144998,0.1701540785422528,0.1534469649079681,0.5040950610281527,0.4402408250197461,0.1813203360026598,0.1776851958950309,0.176830161167883,0.1185706551164049,0.1680981595092024,0.0917001338688085,0.0674146337654834,0.052939264999816,0.0623083743325073,0.0622987521572284,0.0045072236022042,0.1352223423084755,0.0925049309664694,0.4191777513263399,0.5200351828066397,0.7320269070650225,0.7522660968113611,0.6949034260888335,0.0884015355074719,0.4009959315723562,0.2730726045365508,0.2795325538434323,0.471448768954194,0.2192211856407149,0.3001790756224305,0.3585958410951706,0.6273726094741876,0.3989808325048978,0.3750686390513296,0.6667261526418504,0.62676371807078,0.7891631727881091,0.3001790756224303,0.3585958410951693,0.6273726094741877,0.3989808325048967,0.2971148199518999,0.2639029648380105,0.3214544910694197,0.4507948441321979,0.1883607145420731,0.5737777284249218,0.2560933763562916,0.3627108253563891,0.4969499444539611,0.2379653885956444,0.2594366840206058,0.2777229719792367,0.6530542083324269,0.34613498454442,0.3712740604925302,0.5915372414090176,0.8123528188539033,0.8013094146692631,0.6150518569095152,0.2522197355887204,0.9006775117950834,0.4386871278499198,0.5307926575183646,0.1403190567759777,0.7852344303491114,0.1008177619933647,0
39,0.563246469223416,0.0516679712863688,0.2728639769086222,0.1798488242118573,0.0516970534715967,0.2227263448660293,0.0657094139204364,0.260119940029985,0.2362637362637363,0.351621330561458,0.1816155988857939,0.4838645157839898,0.6332472491304085,0.1059198301035306,0.7036979248305686,0.026782175545783,0.0046212626711436,0.0006241491659335,0.0938567005965304,0.7410639135018459,0.2574005822700085,0.218307313895091,0.051697053470665,0.2273741316550113,0.1387685227159679,0.0203876890878315,0.323092581668872,0.3861511276870948,0.3412208250070684,0.5213636370826954,0.5084936192564092,0.6725784442654141,0.1554878055971798,0.7268508515684724,0.729841291599842,0.7305992110515973,0.4658559069033652,0.4998340798088786,0.5001659201911214,0.0481675734673022,0.06132134918387,0.6110436683760515,0.3889563316239485,0.2217076815708452,0.2000852010911484,0.6033108444476872,0.3966891555523126,0.187397259587913,0.1709465362188053,0.6409182244984204,0.3158548431142437,0.3370946200789332,0.1814144703566503,0.3076609327060136,0.6188413643746616,0.452760736196319,0.4939759036144578,0.3861946197898977,0.2925240033843852,0.0867380973292893,0.0797185383861307,0.0047849767273608,0.4204532995003367,0.3353057199211045,0.311837631351412,0.6866863469807247,0.5748847623050295,0.7216535331917315,0.6408527216991563,0.0931066281702081,0.3277853499847947,0.1720399657465701,0.1529905713351475,0.8014810044337557,0.1688108145003248,0.1902713692156625,0.135154310021539,0.4943819044841916,0.0721889293745963,0.4306591686916807,0.9196571868675306,0.6569205807791654,0.788810578843776,0.1902713692156623,0.1351543100215391,0.4943819044841917,0.072188929374596,0.7273100831464792,0.6526339937642549,0.3319290869158884,0.5571476468890432,0.3776249641449111,0.5181980103836566,0.2872038739102325,0.2008221629473894,0.2972298193755185,0.2005071551193134,0.1720331292114866,0.1075834162069088,0.5073216917813298,0.0783530163404653,0.4341924728212636,0.5536239272879049,0.5743084302195498,0.6961472196527182,0.2007047818308389,0.0931373205551402,0.2052679256522164,0.0504652207279391,0.567270774278992,0.1040395645534297,0.7822207900601473,0.0778607314147284,1
40,0.303211979454834,0.1396002936395036,0.527004754865945,0.2779897862823316,0.1394501362501314,0.2696538452035201,0.1360532538516458,0.4587706146926537,0.2307692307692308,0.2789840051337958,0.1905292479108635,0.7399202663155046,0.8357708149270936,0.2221927263074064,0.6412711775760396,0.1337204675980417,0.0073503841300929,0.0002394668090181,0.2905311939175679,0.9193840016496858,0.0807648539294984,0.2750668554552844,0.139450136308416,0.334178812335237,0.2573758149839941,0.0611966691855563,0.1816068155495253,0.5535756144286936,0.2964621348680037,0.4932512320946266,0.4727194817907832,0.647473312287927,0.0625000006640624,0.5865598055570533,0.635704500148909,0.5305480504778393,0.4795800376574624,0.5982730694218278,0.4017269305781722,0.1359427974912224,0.1495690815240401,0.4633530986298616,0.5366469013701383,0.2872382462760753,0.3285935197053253,0.4824939292221303,0.5175060707778696,0.2588521181654247,0.2878428939614202,0.8054241423977369,0.3353084912996643,0.1751136364549933,0.1897792469748879,0.1858786712604033,0.1196534921494315,0.1349693251533742,0.1472556894243641,0.8284204074781094,0.6492470969086829,0.0270093444811781,0.0138259514934094,0.0018585494680875,0.0476638002600128,0.0599605522682445,0.7131483268132305,0.1877430392745857,0.1761834409668947,0.3301760288386022,0.2192766818223823,0.417262748987139,0.7051162964594186,0.4826761546243074,0.4821141491045732,0.3467767552014747,0.3687878056751741,0.4538391414402293,0.497435352253672,0.3772461217620715,0.5381455707107469,0.6898323563465052,0.4178514398627899,0.4092087386979173,0.7937031772711832,0.4538391414402281,0.4974353522536733,0.3772461217620715,0.5381455707107499,0.2615590639091785,0.2790824493217387,0.3214544910694197,0.4507948441321979,0.1906049546559408,0.4226275900448433,0.4115364214924566,0.2970159769890722,0.3203923329769418,0.2827204659460947,0.5122825715457598,0.4316554304739995,0.232945242719142,0.3525489636448213,0.5187541199802613,0.7555057353662856,0.5191375971952726,0.928203932277532,0.6472328051299729,0.4184848810628773,0.4792976690141713,0.359858649021279,0.4178777581751742,0.4883851938790058,0.4932125010471049,0.5650630050838388,0
41,0.385700232124152,0.1459236820475739,0.4354469722718753,0.2285169476622731,0.1457673396860924,0.2399799073053342,0.1539253304349334,0.4104197901049474,0.2046703296703297,0.2597777167678718,0.1880222841225627,0.6456368538654725,0.6834076078619314,0.2569684098752323,0.4900800557561947,0.5357764151115005,0.0217118086692899,0.0010349670545288,0.4322854656588942,0.9548714191539992,0.0451097628656309,0.4231492963470495,0.1457673397376734,0.2660506313001446,0.341088334104343,0.0525855646457225,0.1293516305690113,0.5299282772044096,0.1839106395662622,0.3994704337522629,0.3719726176848933,0.530261689098765,0.1159090919474431,0.588421783030467,0.6243839216512248,0.5554825669936676,0.759944417881862,0.6490643124884055,0.3509356875115946,0.1470702637448641,0.1485795661403874,0.4095666020905391,0.5904333979094609,0.2164978745558178,0.2712076262220455,0.457617938495259,0.542382061504741,0.2086098110233373,0.241750294493289,0.7375953573438092,0.3314521314535353,0.2016640019344552,0.2272842231549059,0.2170495870286244,0.3773687060097455,0.2846625766871166,0.3105756358768407,0.75058654518057,0.6088965800541992,0.0425686554973336,0.0361848812417055,0.002723396522845,0.1588741130585969,0.1321499013806706,0.5058773185153911,0.3294642557732657,0.2923724519276817,0.6599685769314745,0.4032825290997775,0.341857448155393,0.5029134301212703,0.548936626517685,0.569561369959965,0.5040467781716269,0.6003901711975322,0.4736767088657764,0.5238033038608769,0.4628158341117646,0.603776023999914,0.6331597765442217,0.2570268305216915,0.3884675687196166,0.7821497517770155,0.4736767088657757,0.5238033038608767,0.4628158341117646,0.6037760239999155,0.2627403182627573,0.2601080937170785,0.3214544910694197,0.4507948441321979,0.1877996545136062,0.3289713239890126,0.4089813957917405,0.4717376999173266,0.5485303805093701,0.4998309702700279,0.6390888089638105,0.6206438444193241,0.328391595844442,0.6325463679666582,0.7899890958451061,0.624175936825504,0.2950940388684127,0.875807692098159,0.6122981361509885,0.609188565898009,0.4025130286708882,0.5990989341690155,0.5571229321878967,0.5309120166570621,0.4300506431948179,0.4845340857788267,1
42,0.3831623503623564,0.1016583020522464,0.4384348344082437,0.2272326820876798,0.1015715707116445,0.2379848468688401,0.1067770907340285,0.416791604197901,0.2032967032967033,0.2563218401940972,0.1949860724233983,0.5985755400021944,0.6815073971082198,0.1964427926732147,0.6289592759658483,0.2087846906103758,0.0157162926509769,0.0007262410865585,0.2282947261682266,0.8915884939379463,0.1084153659673259,0.3772967156615856,0.1015715707164486,0.2793083354159607,0.2221979103306801,0.040413014883428,0.2121109097924992,0.4892048026943851,0.2845549642292032,0.3821729491380673,0.3621708222533768,0.6409524982089783,0.0,0.6969003759728043,0.7069439622508757,0.6926375850130757,0.734372210730383,0.6625852701366437,0.3374147298633564,0.1050065421659705,0.1011521826025241,0.4448450631607602,0.5551549368392398,0.23561963247354,0.2782348620407118,0.467699069988,0.5323009300119999,0.210451711232476,0.2399512658923594,0.821459060219812,0.3746530670857124,0.2973169286956987,0.2453899873810825,0.2573049699554152,0.4423389279913373,0.4993865030674846,0.5060240963855421,0.5446652691081,0.387570354747336,0.1603673967677037,0.1705782932153862,0.0231690623567735,0.1870682768666886,0.2169625246548323,0.7288144703344754,0.2349701358567608,0.1970485161637262,0.1971005102199054,0.161789040021004,0.7147979507912202,0.7467950378895641,0.3072471163692289,0.3689006090187895,0.6077766422390044,0.4146802661944915,0.2724323718293474,0.3243772651226912,0.7401755213327813,0.4695936902584046,0.6276745560570034,0.5541898630236521,0.4477958145000812,0.782813774954957,0.272432371829347,0.3243772651226922,0.7401755213327814,0.4695936902584047,0.2624348214471765,0.2841422774829815,0.3214544910694197,0.4507948441321979,0.1913530346938967,0.7913996565224557,0.3629973895629114,0.3147425085757013,0.4623480508723396,0.4552654583126064,0.2801569741888018,0.2811935295471581,0.7408158541127855,0.4075111107247176,0.4186270601776223,0.5459730438117797,0.6431983589531063,0.8544918453500205,0.41284386193817,0.2489966844799249,0.3862891018294543,0.4661660385360731,0.5614208103530675,0.3022321509516951,0.5191861568101039,0.4249677733822007,1
43,0.381002866832105,0.1039218895272719,0.4401874992933318,0.1989923775179181,0.1039897975205117,0.2081646213000207,0.108988367198194,0.4257871064467765,0.1593406593406593,0.1988786282617987,0.1532033426183844,0.7191586102774968,0.8589617487403746,0.1497212636049907,0.5683841775256986,0.2953734799350985,0.0216916277449797,0.0011738120665789,0.2380668044438887,0.896673185901426,0.10323270768135,0.4230158299138522,0.1039897975278391,0.2403272064389768,0.2665195282315171,0.0364123287999565,0.1746824869251536,0.4732174352198623,0.2114085547388308,0.3945454542258727,0.3918358271139545,0.6725784442654141,0.0518292685323932,0.7224292175117286,0.7259962514832405,0.7257940998442547,0.6020198703421733,0.5931983988806757,0.4068016011193243,0.1020325313896316,0.1118034685564205,0.3929077067200742,0.6070922932799255,0.1916716584697568,0.2479363030980081,0.4209464217574842,0.5790535782425157,0.1755811488887492,0.2169257998467984,0.6188198965847751,0.448053995050744,0.2514105436248235,0.2192606714097993,0.2248047631488609,0.3492149431510557,0.4822085889570552,0.4685408299866131,0.3396730962168323,0.2246814876580299,0.1426063797370741,0.1060867233787478,0.0581385352277939,0.2277931801450433,0.301775147928994,0.5145569192350958,0.4308731856387524,0.2840758046806698,0.2652532281854241,0.2303656685657953,0.1551395603815459,0.5047894424887187,0.2485334016082943,0.265614400497569,0.5097440753768171,0.2325371327344029,0.2877860857484645,0.3188594731878904,0.6598153660613219,0.3986589008197305,0.0851804375123321,0.7760012642248686,1.0,0.7668923865077846,0.2877860857484644,0.3188594731878907,0.659815366061322,0.3986589008197266,0.2755711845171475,0.2461935662736609,0.3214544910694197,0.4507948441321979,0.1857424344092276,0.8270987917090589,0.2777402313677314,0.2267501495136387,0.5383444887164219,0.3345628130577955,0.2371586775812947,0.2396233732268985,0.6566097087058083,0.3363500950362252,0.3571558555375035,0.0990615047506769,0.3268621738921905,0.4806849440616191,0.4667802890928892,0.2095461249540897,0.6360936664977198,0.429691231290073,0.542586140190568,0.2274193511326535,0.2040142528388062,0.2178779632321624,1
44,0.3558271311679657,0.1243564587815027,0.4673979664033335,0.2587823550781044,0.1243111075455848,0.2640646047351642,0.1273998483246653,0.4295352323838081,0.2953296703296704,0.3678713245060546,0.2479108635097493,0.6807056841325595,0.796240814068878,0.1980355720732678,0.6911441498448246,0.196265430267195,0.0108675192804403,0.0002974550199332,0.3011794190112794,0.9231234718900196,0.0770529423614329,0.3265018887876911,0.1243111076088231,0.3164755969558563,0.2409612813442311,0.0530295817116271,0.1950168872379693,0.5312360404538525,0.2981455654556825,0.4820062710124903,0.4681371032760383,0.6180903684960958,0.1734693877334183,0.621667909877377,0.6536488308122743,0.5923218091541287,0.636977584474578,0.595383527850257,0.4046164721497428,0.1213556469324628,0.1335581502721757,0.4608982545545735,0.5391017454454264,0.2713224868625994,0.311756686698292,0.4779179553516708,0.5220820446483292,0.2425856467730103,0.2717888880764086,0.7075198575282533,0.4124223587442093,0.2890751496914265,0.1959940739406654,0.233161129646333,0.3329723876556578,0.4110429447852761,0.4484605087014726,0.6554940057229632,0.5367990582580225,0.1111228165344295,0.1068048267213782,0.0091093667823598,0.1635731403599455,0.2209072978303747,0.3013063465856601,0.57802725925461,0.4442705584781556,0.4285665895279709,0.4355767711946296,0.7446381437312051,0.3020496556131761,0.5325380752559727,0.467590505528918,0.290414702747801,0.3454848982612202,0.5060895836580657,0.5007920109809317,0.2163828981464408,0.4524426532093511,0.6185770817339338,0.5230038826919272,0.4391661044504782,0.3967911969784678,0.5060895836580652,0.5007920109809316,0.2163828981464408,0.4524426532093518,0.326985691632067,0.3520283053129886,0.1948264809127798,0.2721937362320423,0.207997815538415,0.2462194860568447,0.4355706452100392,0.6239571436915967,0.4320486254451366,0.4169390537105133,0.6343156084269568,0.5383261532102639,0.2047343513482434,0.4336735555759039,0.6265103653242199,0.5203551595707816,0.540907928047382,0.6658163554373354,0.4778547145219566,0.4858980087905152,0.5627730555385826,0.5318137694156304,0.3521525667909847,0.8764937005101533,0.4667913073340807,0.8294713539643841,0
45,0.3523800150993983,0.1734405601735672,0.4715128675942238,0.2789913507759949,0.1733567295260381,0.2837134561526283,0.1775547892450235,0.4310344827586206,0.2802197802197803,0.3484973632549025,0.2311977715877437,0.7530790623943195,0.783539371102819,0.2099814175736661,0.6601571803080457,0.2986558867391922,0.0189053645551244,0.0004452841209983,0.274398191687437,0.9133371155033384,0.0868835166424545,0.4033779201982841,0.173356729582767,0.3290850452820397,0.3308830822124829,0.0729330340133632,0.1345914345058788,0.5810788940095093,0.2327171465370589,0.2781222064482976,0.2655665165922327,0.471686874093542,0.0408653841505408,0.6621924651475868,0.6812476302193087,0.6483025414697989,0.747094383759185,0.7219783550517413,0.2780216449482585,0.1821861499251749,0.1634348908672014,0.381911419218209,0.6180885807817907,0.2613542163261799,0.3402109969721753,0.444366120892133,0.555633879107867,0.2538288544276241,0.2994111983325964,0.7953201912358259,0.4073852128486015,0.181388994557523,0.176578201097757,0.1752706888490218,0.0388738494856524,0.0777914110429447,0.0424364123159303,0.0703034419759448,0.055207784086032,0.0379376546781874,0.0379277824214,0.0037187364510375,0.0196262706952994,0.0199211045364891,0.5924726586150545,0.1192749544696687,0.1492932536504233,0.2228907512085709,0.1254418056953723,0.2457745032532012,0.5862095444610529,0.9530348402701548,0.7757491797572691,0.2434202828475355,0.6467582012559099,0.9429092631814712,0.8495426609623408,0.1157672926694858,0.7434838370673511,0.3940511672699951,0.53873522524284,0.6090688460467745,0.788981520993874,0.9429092631814714,0.8495426609623418,0.1157672926694859,0.7434838370673519,0.3213444744690339,0.274022621160496,0.1867207367725154,0.3094495719876878,0.1939713148267423,0.2655358738606641,0.8438486746614643,0.7010277960309164,0.1861291950187103,0.6383767697776124,0.8364957673696185,0.657396132679898,0.2690048288285204,0.520302647714444,0.3924963042234859,0.8293826130019013,0.4813257256988697,0.9083820282141152,0.7581247652755216,0.6925453127029235,0.5722803457001221,0.6214864881300549,0.1115562962062125,0.529058485909585,0.2447968693022474,0.4120573423466231,0
46,0.4477019989634017,0.1092919077221761,0.3743189395231049,0.196790480969012,0.1096387888301041,0.2192937756143812,0.121996561584828,0.3395802098950525,0.2582417582417582,0.3521288890396012,0.2083565459610027,0.732111750026461,0.7907674293741694,0.1157419697371914,0.7078934138258157,0.2415425331895188,0.0188943234911613,0.0016066818100293,0.2219653427229735,0.8876216361256172,0.1119154642996938,0.4032948675829799,0.1096387888691882,0.2378177144449987,0.2842536996143535,0.0377179345374268,0.1622348215162649,0.4786106515035218,0.1971929437896241,0.3332267748633131,0.3521963814221921,0.4495749815157005,0.085000000053125,0.66608968741465,0.6879436887283068,0.6464312400145324,0.6696047840215313,0.55510892232661,0.44489107767339,0.1041599946237561,0.1223812773355557,0.5905887609534528,0.4094112390465471,0.2279831811445882,0.2130384763538331,0.590940427549843,0.4090595724501569,0.2042685605190738,0.1908403488225171,0.3688507371797023,0.5174816498262963,0.2519133156279527,0.2236849559366879,0.2467522965294672,0.558202490525176,0.4171779141104295,0.5448460508701473,0.2840205964217815,0.2227961643634045,0.0707395524173234,0.0717441695723943,0.0015785432209771,0.5661231458421441,0.5463510848126233,0.2989170613544299,0.587165766580741,0.6539071035916687,0.7901128241389579,0.6352758043896035,0.2705381488465496,0.3152183927580566,0.5093311307969726,0.4513154232106884,0.2269720272660065,0.2907944012692876,0.5297362390391376,0.7051135317657755,0.4363685833584161,0.6765196332022794,0.6728943929681972,0.5004370308353793,0.3784390597972963,0.6664586493779802,0.5297362390391369,0.7051135317657755,0.4363685833584161,0.6765196332022786,0.807593888850971,0.867919951586362,0.7644890519679326,0.8052097629945731,0.9813255547753076,0.5106259582798205,0.4088985618859254,0.6306293105297747,0.7986294032322321,0.702962420730743,0.5109759484705978,0.7037899074838583,0.4909523790704775,0.6500598883362843,0.5850002385597001,0.7194404600387098,0.4089175671195483,0.75443175887743,0.8545777820245584,0.6688749940156559,0.646116713142065,0.758679819691247,0.682459453130066,0.3218543033055324,0.4887412982856492,0.2951872194042192,1
47,0.3274688362962006,0.1611928613360312,0.4990999632175944,0.2244766581628677,0.1615171342047449,0.2225836041836226,0.1611509349387984,0.4677661169415291,0.2335164835164835,0.2798454087634589,0.1693593314763231,0.8448575005753547,0.8697966383307599,0.1552959915051765,0.5291736127676467,0.4975070443577594,0.0562881327313897,0.0016393512246293,0.1577907181135095,0.8391367728904046,0.1611178968761906,0.5630030591658793,0.1615171341144405,0.2490053659741135,0.4036724253192053,0.0545003330097185,0.1020212523790959,0.5354937732822571,0.1448042117857261,0.7091829696556539,0.6937655632609182,0.7990822270996158,0.3035714290647321,0.8589456317412569,0.8267078979803106,0.9037706652152152,0.3596463860007906,0.6350614959715843,0.3649385040284156,0.1611369365213694,0.167568427764259,0.6129889629076843,0.3870110370923156,0.2427027110633665,0.2191854537508243,0.6303946804847202,0.3696053195152798,0.2327801421486444,0.2049533900413159,0.3901875417094945,0.8437657806307132,0.1720495929583651,0.166251636572856,0.1665084425857318,0.3557119653492149,0.2613496932515337,0.285140562248996,0.2845319935509308,0.2164550404041642,0.0275394673009125,0.0113379308322846,0.0026685846263231,0.3844274235233306,0.2998027613412228,0.6757338899330808,0.2220754974075841,0.1871186554028015,0.2341902557088384,0.1330938550270843,0.2227443128513871,0.6817224222373369,0.4585452850373687,0.6673668956767265,0.6877662369642865,0.6645920589706705,0.3163684383368191,0.3999920052073954,0.6243691420196735,0.4528093805776418,0.4307088175869486,0.1852922152706504,0.3929196977621385,0.1009199711002546,0.316368438336818,0.3999920052073966,0.6243691420196736,0.4528093805776443,0.601878443175226,0.492227710614089,0.2727653894188384,0.4417415979141381,0.289725559685095,0.3584405449793306,0.4852466830680237,0.3470811015447082,0.3415263272109439,0.3660795400656745,0.5381715596500678,0.4564288990224855,0.3321071487327875,0.4421253539182025,0.1139601351877446,0.2566590663056987,0.7551013713637419,0.3440830361259389,0.319043245824933,0.4511380254019955,0.2984196980571125,0.2722519191435479,0.5588699939443199,0.4562543543568204,0.7913077010181515,0.6029046832889783,1
48,0.3561253435054348,0.0689030544949522,0.4663851112121256,0.0743283897954887,0.0688277076933176,0.0755963940028968,0.0701181924708852,0.4242878560719639,0.0769230769230769,0.0958667823108665,0.0690807799442897,0.5703385988971833,0.748953282529729,0.080169896469339,0.7887225896766303,0.1768712584537511,0.0801960709880982,0.0042855738072315,0.0364045239029554,0.5120304944452037,0.487577436434939,0.6160617100445175,0.068827707690082,0.0770205880021514,0.4547406348816148,0.011521769862433,0.0844305194905036,0.3049448666557512,0.0362085534080761,0.7946478884164375,0.7724962984834777,0.94553468289371,0.0910714289319196,0.6106716167413855,0.645179449267046,0.5775972463431245,0.3032903132107125,0.4111596028660442,0.5888403971339558,0.0576469303639424,0.0880011311712582,0.6649477104898198,0.3350522895101802,0.0828730746556126,0.0602276389225761,0.6166625176886898,0.3833374823113101,0.0793734640999997,0.0661017671209967,0.8113656096587862,0.5411153548989088,0.2107593050766043,0.170822243809073,0.1881484718419787,0.0,0.0337423312883435,0.036813922356091,0.0,0.0,0.0464456693986856,0.0464358844473691,0.0,0.0,0.014930966469428,0.7594226209188862,0.1925406546674057,0.201096541100181,0.953601999489312,0.3210454472508731,0.1604568090052561,0.7589341546850317,0.2648363795582359,0.3569759130740193,0.9493204455477834,0.4650383917368699,0.2733502999928132,0.3095583173097242,0.8888252910848582,0.4807590763046709,0.3548649057640398,0.414850485022907,0.6091187468038456,0.8249751165687985,0.2733502999928153,0.3095583173097244,0.8888252910848573,0.4807590763046709,0.2628351842002314,0.3267550820591163,0.2921191796413598,0.4823741927040373,0.2074037555145865,0.6863329957099159,0.266291826674239,0.4102799318271098,0.4346294896901622,0.4952698267817672,0.3992095888700264,0.4533204529340661,0.5829804949009985,0.5098600367036672,0.3867324937947219,0.4463475320667765,0.5705292228562088,0.6555737273907749,0.6144193403461152,0.3959601297160574,0.7055316447178024,0.5717760907618714,0.3757792210738738,0.6317892365049109,0.0,0.4962843969704122,0
49,0.4617423575983539,0.0614921304967258,0.3595948778026853,0.0627126667656656,0.061555546525333,0.0740419881385702,0.0701997403859985,0.3343328335832084,0.0508241758241758,0.0742465461708941,0.0415041782729805,0.4778229351804128,0.8098495029152296,0.0899920361029997,0.6729411764340484,0.2624675008267745,0.1704103513523567,0.0165779310917105,0.0237733030659347,0.402320028483059,0.5948244319824552,0.7300494355239587,0.0615555465235953,0.0555510937118888,0.4981118621048851,0.0087207971785611,0.0719176280791885,0.2676148691658391,0.0198108504277403,0.7458941891399017,0.7420307720431975,0.9251527771098188,0.0518292685323932,0.5579426829592218,0.597982811124729,0.5214076597518882,0.3983911856371489,0.2889157626268395,0.7110842373731605,0.0437443335168248,0.0871998985070826,0.6215948692236535,0.3784051307763466,0.0585835631531932,0.0447924612537826,0.5442013040396724,0.4557986959603275,0.0566705970129209,0.0549497810847241,0.6014330067180469,0.4836710598110626,0.2543006823234421,0.2129491469551759,0.2306822613543201,0.3069842988630211,0.2539877300613496,0.2771084337349397,0.2895796003294802,0.1548754766955647,0.0679881919661456,0.0236367518170239,0.0193610470476171,0.2403239196153063,0.2110453648915187,0.6561876261655232,0.206734873181322,0.1973881283101898,0.5537996440325674,0.1956964013974119,0.6179081793347625,0.6498637493418508,0.4443495373125078,0.4123605188621447,0.4084387970859295,0.3960366306404649,0.3766028328229405,0.3682096335971077,0.4156595576121902,0.4103596692564227,0.3876549974024528,0.7167732951829873,0.6116152866680233,0.8501154188390423,0.3766028328229376,0.3682096335971088,0.4156595576121903,0.4103596692564223,0.2416617308348453,0.2179952689131979,0.1746609148196835,0.2769285297300323,0.1401435275777288,0.6385949191063648,0.6538318061368584,0.7016364142200241,0.2958745234128646,0.6517205315126592,0.4207715763035501,0.3311637383161231,0.3315137547710615,0.3269269782262706,0.3559316177382099,0.7631306194710943,0.6602560583843128,0.9897315228424616,0.4904050821618845,0.3462821415590387,0.4861636901081139,0.3797835328015005,0.4204733110732592,0.0980651977617234,0.5854032094146217,0.1086340268439107,0
50,0.3652993212616728,0.0695923339759072,0.4571980814634323,0.0920053690380042,0.0698865130362049,0.0947041460432235,0.0715070706386101,0.4077961019490256,0.0824175824175824,0.1051922934141037,0.0913649025069638,0.5690107269946002,0.7897299904566456,0.0777807273692593,0.4705882353409635,0.3136389561259297,0.0651398832741252,0.0027337766137302,0.0843531162440019,0.7192277901489573,0.2808414059095291,0.5848454581676698,0.0698865130492811,0.1050478223308189,0.3749962429602532,0.0142292604886924,0.1136176018948968,0.3343240651536681,0.0673644600805104,0.803347594892636,0.8093515714613008,0.9416973399197356,0.1847826093654891,0.6396154269002934,0.6689468113404311,0.6112991712042732,0.5986504522301788,0.4650630571726201,0.5349369428273799,0.0620455379118004,0.0851794527881926,0.496842551898647,0.5031574481013529,0.0928624700501455,0.1011565791361528,0.4995040554365616,0.5004959445634385,0.0882911784974665,0.0958898950515556,0.4620156069478663,0.5308619633873679,0.2070901387059922,0.2203313293230758,0.2197786511994092,0.3416350839198701,0.252760736196319,0.2757697456492637,0.1865038003443146,0.1573386592439087,0.0199172973540884,0.02197645884602,0.0004631563922482,0.3562332597152389,0.2781065088757396,0.7910383380621038,0.1862143374874971,0.1349396696669872,0.4782855168131766,0.0968316322292311,0.0954470386125115,0.777990539929756,0.6132147805747596,0.5198770916789462,0.4336909857086495,0.4821891184833752,0.684805941889539,0.6624521538338839,0.5436389960381639,0.694591221411542,0.5977959751329882,0.495149004889623,0.4257101640005412,0.8273038734218151,0.6848059418895402,0.6624521538338833,0.5436389960381642,0.6945912214115433,0.2727752964388318,0.2216673016982222,0.1602050262742221,0.326933699904516,0.1411326485768003,0.529201594946524,0.5513478952771593,0.7310223156161977,0.6020134599376405,0.691200414345861,0.7496024462719475,0.6719799146407425,0.3943197036811979,0.511491045581186,0.4154290111864253,0.5811030815740675,0.587704845976867,0.9296503253022516,0.5005110059155623,0.6755146246162902,0.505856439379428,0.5758514924439503,0.4007576912583803,0.5727841960455532,0.3964695942816643,0.5247159570394149,0
51,0.2598924839812588,0.1081031514669331,0.5796699680263718,0.0840980366612638,0.1082766979131869,0.0745898924336977,0.1000625087848941,0.5299850074962519,0.103021978021978,0.1123841551891643,0.0844011142061281,0.7201820722545228,0.8792538157266879,0.0793735067693124,0.4977375565340595,0.6045200070495764,0.2963144414461994,0.0028971236867303,0.0329498195112664,0.487320726357452,0.5142960121726353,0.8142282618813608,0.108276697955441,0.072902090387782,0.6916126764251148,0.0164418485100978,0.0331557514638168,0.3549084184268025,0.0104723888799869,0.7378291538929146,0.7428378829379138,0.9210680180376244,0.0559210516599506,0.6836892259778753,0.7013051050613248,0.6687632342591421,0.2922641251369908,0.4387257333902027,0.5612742666097973,0.0927909074587838,0.1336610634737727,0.8501782894072056,0.1498217105927946,0.0931990576919381,0.0397384757279506,0.7147302713598599,0.2852697286401399,0.0995665468794136,0.0679642549108339,0.3959395880344075,0.4803916392348049,0.2362603850432241,0.1793694840974467,0.2046507386090796,0.4195993502977801,0.452760736196319,0.4939759036144578,0.3827436651168601,0.3220162842883594,0.0753726314484257,0.0475194627664172,0.0067562420949673,0.2873141926287925,0.3353057199211045,0.8338893927024977,0.1816070903121715,0.1576658730963282,0.7311584154111772,0.167002635707475,0.1014714201357271,0.8281585143080535,0.6582959160112309,0.8057477718914212,0.6852841931758118,0.9600163427232205,0.6256164988215138,0.7888984708541591,0.7310903733495465,0.995566765604926,0.3617414145922394,0.4279645075899849,0.596160049617587,0.8217169434737306,0.6256164988215132,0.788898470854161,0.7310903733495473,0.9955667656049244,0.2501019825722722,0.3238561088077814,0.2530546008828042,0.3337221777701231,0.1701138938495934,0.699778908424785,0.2269697466316589,0.271334721939772,0.6211241367897724,0.3451449894044244,0.572192191365585,0.7212564910975247,0.6621198136002862,0.785623453267879,0.4367666172645177,0.4682906872675471,0.5806755323725655,0.8976861132171032,0.7835057670452746,0.6973002738469112,0.6855414525380628,0.8664539072200717,0.4545419428648071,0.3842479065653766,0.524691911403239,0.4816768995875055,1
52,0.350861920049089,0.0747722044978377,0.4726641389258265,0.0896992053578945,0.0747038533258152,0.0906398636082458,0.0757125640844409,0.4355322338830584,0.0879120879120879,0.1079606281129099,0.0685236768802228,0.6138203345259421,0.7002447361816905,0.083089992036103,0.8367371896921227,0.2313461500038915,0.0984322400363358,0.0035831813933309,0.0389859600006233,0.5302183862881705,0.4701272142398728,0.6469354805463317,0.0747038533447328,0.0987914033742249,0.4146687416743132,0.0144183279850584,0.0979287160623191,0.3361891539112513,0.0550005877183555,0.7864196473003288,0.7724962984834777,0.94553468289371,0.0965909081853693,0.6891218887429016,0.704888146331959,0.676582386692282,0.2587986775071349,0.4755513307116217,0.5244486692883783,0.0669032550657643,0.0900541830322635,0.6791260498086047,0.3208739501913955,0.1056609958200275,0.0777047439677977,0.6472677556623184,0.3527322443376816,0.0994791775726465,0.0794073908550116,0.8018847136184641,0.4985142002684767,0.1924065005784918,0.149658697474932,0.1670654282215027,0.1488900920411478,0.1014723926380368,0.1107095046854083,0.8727245755599017,0.6775024217974028,0.008354334298297,0.003434326532192,0.0001897512120327,0.0595680027567626,0.0449704142011834,0.3203154383741994,0.892543831530512,0.7353928997179364,0.1803695749841057,0.7478121940163635,0.3213211831896093,0.3258344900322061,0.4044134429907198,0.4167984414672679,0.2568810442547967,0.2544434214542002,0.4924041636406174,0.5656861687638413,0.2588732803029767,0.3933605726750955,0.8069121129047017,0.1764570645664452,0.6148448919907942,0.3348210374266099,0.492404163640618,0.565686168763841,0.2588732803029764,0.3933605726750955,0.8468167782180045,0.5775399527215832,0.5144083111818726,0.8048894847441928,0.6109651231357324,0.2834890362456957,0.2947411498203344,0.2179208634389927,0.3855863134481075,0.1455127953923083,0.2502914450996433,0.3013828672118869,0.5092246123689466,0.3197845229226184,0.4038841898035796,0.4182518398097055,0.5001879416937021,0.6249397946091083,0.5923676343182828,0.276106145411696,0.6389123742681495,0.3703326485104189,0.4993301803595801,0.1869123675189084,0.6485009659312639,0.1714210026036771,0
53,0.3442663126127716,0.0740799649310093,0.4797156002943542,0.1178520712274322,0.0740184640264652,0.1184127332469197,0.0744683393722937,0.4287856071964019,0.1016483516483516,0.1261316313217299,0.0874651810584958,0.533656138246592,0.7519672131526144,0.1154765065038492,0.6725526982440243,0.1993290377835225,0.0465106791064813,0.0017863635903294,0.0745629755086717,0.6914704740666837,0.3087158026820232,0.5345919809151964,0.0740184640281065,0.1380843167376593,0.3193770295206856,0.0180502217827504,0.1408176397244672,0.3683802561513447,0.1059107346341626,0.7268090916671844,0.7098979395076065,0.9134221843134128,0.102822581189264,0.6167883825798657,0.6537003857594827,0.5787447190895065,0.5500269249314678,0.5239881524828012,0.4760118475171988,0.0694709225585945,0.0852444045564113,0.4712393086594491,0.5287606913405508,0.1187368897494441,0.1357520466445506,0.4855734661326106,0.5144265338673892,0.1101977941975326,0.1228071414005726,0.8728800240691545,0.5031688150698642,0.2803310197492699,0.151895624510977,0.1899415212670019,0.2831618841364375,0.4613496932515337,0.5033467202141901,0.8351427422597506,0.6738666601267917,0.1434331165872974,0.1157020768120384,0.0286381667623255,0.1192456494838901,0.2149901380670611,0.3679024028081119,0.4543814577839659,0.478530004815725,0.3139382158350873,0.4856129229369879,0.7766841012577343,0.3723675237693237,0.7130957905393658,0.6215500823831179,0.3815690518348348,0.500536407561032,0.6225138382034408,0.5743604233327997,0.3354237267334386,0.4967742964451994,0.1260827369935062,0.5495984496405881,0.9352620314921684,0.2409568568328672,0.6225138382034391,0.5743604233328004,0.3354237267334385,0.496774296445199,0.2293884402578477,0.167746399223391,0.1243747227803591,0.2308381786493955,0.1274827787896145,0.2791412407176225,0.4845352360375762,0.3849346139520009,0.2861969235603411,0.2777956097500659,0.8091091496617187,0.5008532200418024,0.2170342739175313,0.3550059366063315,0.3375233666090319,0.9234037071032708,0.7655657877455884,0.4390650613788538,0.3192323249326863,0.532758842510154,0.517647277908267,0.3945831054895485,0.535153690600217,0.6550995421971381,0.6849391590209452,0.8043132279427003,1
54,0.3293870920537851,0.0779154692790541,0.4964809488154077,0.1232712203629478,0.0778638567627935,0.1217350598161023,0.0771136945601085,0.4565217391304347,0.0824175824175824,0.0981725138466068,0.0746518105849582,0.5477484072978468,0.755225930046682,0.1335280063711176,0.6819004524516614,0.2142914236416668,0.0420078755036103,0.0013453264932291,0.0893014833598872,0.7318548668238193,0.2684722826826631,0.5194955942936089,0.0778638567622824,0.1452446880224044,0.3206274664291279,0.019503204030921,0.1401238188701678,0.3796544235591024,0.110483183487733,0.7936686668980698,0.7719440457199734,0.9276944055954246,0.1491228079682017,0.6454134162253471,0.6722737811827189,0.6204124735063137,0.3580403836735164,0.530052903812457,0.4699470961875429,0.0733247731345573,0.0890984259402166,0.7495033475062953,0.2504966524937047,0.1601084470096676,0.1083759428991529,0.7231360349708579,0.2768639650291418,0.1432391441296115,0.102308874215326,0.8285646149529897,0.381548243358042,0.2156948018183172,0.167500801828391,0.1822349894311918,0.2225230102869518,0.1779141104294478,0.2342704149933065,0.6378020073313267,0.298803816016971,0.0456240462906562,0.0260340461986342,0.0057298773282563,0.0941841705433641,0.1001972386587771,0.3578666732952622,0.5030359347265124,0.4651856256037762,0.2069978009993973,0.4150966868017664,0.3660622566353573,0.3625732891717217,0.1841301019123019,0.2110657903782537,0.3500179620788123,0.1547298938582392,0.1616522895647706,0.1962138999189638,0.3357942310920574,0.2529064609344656,0.4637531649467564,0.4200373984827574,0.5081403126853622,0.6941675105673685,0.1616522895647694,0.1962138999189639,0.3357942310920573,0.2529064609344655,0.3127499719500998,0.2235064352662738,0.1641988293456689,0.4035390652526162,0.1497380012687218,0.2802656705955725,0.4135490612155356,0.2634576287897687,0.3270024151635628,0.2881917196792794,0.2505440085602231,0.1926555991257216,0.185865535366329,0.2190714837579566,0.3200601920311584,0.4075344104947199,0.6559566324945362,0.7476850365983786,0.6675204166585312,0.1973776950484297,0.4624951918086515,0.2656145494878999,0.4179921835100018,0.1657142237071497,0.4797095048184856,0.1062935811702132,1
55,0.324023716508059,0.0660364660906629,0.5026969196085899,0.0924244132334677,0.06610442239388,0.090180429269041,0.0646583003524093,0.454647676161919,0.0947802197802198,0.1135740355373585,0.0768802228412256,0.5798890620732438,0.5914754098512204,0.0666312715688877,0.5938523950989764,0.3080430715994218,0.057944292325857,0.0010594691154788,0.0934640869817332,0.7418346807496147,0.2588188200398683,0.567333709097011,0.066104422407445,0.1054322030321833,0.3566263017215531,0.0136439789734224,0.1218406105119486,0.3284100951961015,0.0722229699714478,0.6969580428860583,0.6992914546098453,0.9106052991566004,0.1089743584431089,0.7300898508106584,0.7340530913610277,0.731721461625952,0.244313028251724,0.4497051134048612,0.5502948865951389,0.0578434459158133,0.0818398558034435,0.7376432182575843,0.2623567817424158,0.1179457635426035,0.0771317465627153,0.6954694672554946,0.3045305327445054,0.1062948570263637,0.0768793898471066,0.6101179914937691,0.5004014045442823,0.2536242283498856,0.1847837185330679,0.2028870042214693,0.1597184623714131,0.1607361963190184,0.1753681392235609,0.1855512743938382,0.1018779659354269,0.2217687375031305,0.1470443455652334,0.1072604316899348,0.1078113497172752,0.1130177514792899,0.3669516494858419,0.4645030674673342,0.6650126488638923,0.3897010107653923,0.6498055745955269,0.274143582105583,0.3670536305301992,0.1167119727407516,0.1507076227376342,0.4009147849407164,0.1112547958264002,0.1093333486400643,0.1929717330892197,0.1640539604064971,0.2342656700179307,0.6208021003678947,0.5320090778450268,0.3618717796586295,0.8105074704732735,0.1093333486400631,0.1929717330892197,0.1640539604064965,0.2342656700179308,0.5119806698358405,0.2956378772403508,0.2414985739065817,0.4305641197994135,0.1970179850243364,0.3804202461529752,0.3733187082689035,0.3439014353782649,0.4918622357500419,0.4302336034428455,0.2659937467318498,0.2509765121946685,0.3090884294988126,0.2696770578543543,0.5045703499304729,0.2362259611735602,0.516158370419302,0.325421261034105,0.7516909199206299,0.2281615062602454,0.5055818430413874,0.3101228946119447,0.4317340775683006,0.2702289219889846,0.5799686410077151,0.2871544514269233,1
