ECG_Rate_Mean,HRV_RMSSD,HRV_MeanNN,HRV_SDNN,HRV_SDSD,HRV_CVNN,HRV_CVSD,HRV_MedianNN,HRV_MadNN,HRV_MCVNN,HRV_IQRNN,HRV_pNN50,HRV_pNN20,HRV_TINN,HRV_HTI,HRV_LF,HRV_HF,HRV_VHF,HRV_LFHF,HRV_LFn,HRV_HFn,HRV_LnHF,HRV_SD1,HRV_SD2,HRV_SD1SD2,HRV_S,HRV_CSI,HRV_CVI,HRV_CSI_Modified,HRV_PIP,HRV_IALS,HRV_PSS,HRV_PAS,HRV_GI,HRV_SI,HRV_AI,HRV_PI,HRV_C1d,HRV_C1a,HRV_SD1d,HRV_SD1a,HRV_C2d,HRV_C2a,HRV_SD2d,HRV_SD2a,HRV_Cd,HRV_Ca,HRV_SDNNd,HRV_SDNNa,HRV_ApEn,HRV_SampEn,max GSR,min GSR,mean GSR,number of peaks,number of peaks SCIPY,number of valleys,mean time between peaks,median time between peaks,mean height of peaks,median height of peaks,variance height of peaks,ratio of peaks,ratio of valleys,0,1,2,3,4,5,6,7,8,9,10,11,12,13,14,15,16,17,18,19,20,21,22,23,24,25,26,27,28,29,30,31,32,33,34,35,36,37,38,39,40,41,42,43,44,45,46,47,48,labels
39.55205326,116.9449364,1518.512605,188.14008,117.1864587,0.123897608,0.077012819,1552.5,80.8017,0.052046184,109.25,30.25210084,62.60504202,1021,5.534883721,0.025456518,0.005328023,0.000452648,4.777854314,0.81494267,0.170566664,-5.234775,82.86333959,252.8405232,0.327729663,65820.16785,3.051295356,5.525329095,3085.964457,0.575630252,0.56768559,0.853846154,0.152542373,51.15093719,51.20245754,51.18169835,45.41484716,0.457018302,0.542981698,56.02106898,61.06286702,0.535671412,0.464328588,185.0529084,172.2897306,0.52804219,0.47195781,136.7167493,129.2525145,0.710698041,0.716863707,3.982483904,3.317402789,3.560146243,2.75e-05,1.93e-05,1.93e-05,126117,123327.0,0.01626245,0.009380335,0.000347326,7.57e-11,5.3e-11,1.6902215437174173,-1.2816483980597757,-1.4188815580487677,-0.0532782647493212,-1.1088884069075684,-0.2146107735628214,1.7382644192689063,0.5059206401333085,0.3292267073040211,0.0603001940764544,0.7898756696588056,0.6769309562363252,0.6295468377157767,1.426845385831248,1.4954001838215991,-1.0024359264063485,-1.7464299950677526,0.6705797276150854,0.5485925445456935,0.6769309562363292,0.6295468377157719,1.426845385831248,1.4954001838215891,0.7741883661068701,-0.1860219037960331,-0.0929148117465612,2.535333949787367,0.3750676004548242,-0.7014474000475857,1.107376428332273,-0.0290956674065961,-2.004206326596972,-0.6149664779329944,0.54804674413995,-0.2003553356764995,-0.1304671453659811,-0.0335246234383228,0.1552184765282829,-0.8073076737760445,-0.1548689858474242,-0.0765800174852446,0.8198723348556243,-0.1147582382012884,0.7809229563050523,1.0608355370930402,0.2134363501008597,0.3015814023583767,0.2030835151726006,0.1779959637407657,1
38.23232262,54.81803106,1569.598361,94.00717924,55.03797712,0.059892506,0.034924878,1594.5,71.9061,0.045096331,105.5,27.04918033,65.57377049,456,4.066666667,0.023700426,0.003052106,4.88e-05,7.765268707,0.88430146,0.113879055,-5.791923311,38.91772685,127.4792461,0.305286766,15586.07726,3.275608738,4.899706935,1670.28853,0.557377049,0.56302521,0.865671642,0.060606061,48.75632842,48.8190463,48.70079653,45.37815126,0.366953882,0.633046118,23.57850363,30.96907059,0.53027418,0.46972582,92.8302943,87.3698727,0.516346724,0.483653276,67.72521455,65.54608299,0.688536202,0.995199193,7.146960287,4.043869449,5.567496013,4.15e-05,3.63e-05,3.63e-05,67938,57480.0,0.135893088,0.083338673,0.015210999,2.15e-10,1.88e-10,-0.0219512171754642,-0.1444127087440131,-0.1753428630050199,0.3132635077399242,0.0350890884713502,-0.6742941166395843,-0.0784009533811368,0.0255801545636563,-0.2678966800755965,-1.1920390894756838,-1.087412687733347,0.3318743938675369,0.0844064378181334,-0.5799267434374008,-0.1068102172785687,-0.4034803073346443,-0.8379658744223446,-0.3003818231367215,-0.9525336521475344,0.3318743938675277,0.0844064378181372,-0.5799267434374019,-0.1068102172785632,-0.769587146775246,0.6931794574284911,1.1953482570511496,0.5973714326304022,0.8751577343945899,-0.2416443383591492,0.2259825081953561,0.5389066488068724,-0.0831097916503934,-0.1411952698937587,2.146258112351574,2.969648130943929,1.9625752456260488,3.1508985146895,0.7060356493821088,-1.021212202137434,-0.9589493581548204,-0.6221173929738655,-2.216461503801521,2.951329545265569,-2.097351841144838,0.0281311148092313,1.8551391339346528,0.7107311169399793,1.5357146569666655,1.4087065893148778,0
37.52695907,113.5998826,1596.813187,160.9339348,114.0756676,0.100784448,0.071141624,1645.0,102.2994,0.062188085,148.0,34.06593407,67.03296703,853,3.5,0.041010336,0.006112926,0.000152579,6.708789257,0.867469199,0.129303391,-5.097349654,80.66367809,209.0846945,0.385794275,52984.65812,2.592055055,5.431120246,2167.836157,0.494505495,0.494252874,0.720930233,0.045454545,44.84006093,44.68030669,45.07251757,43.67816092,0.404962271,0.595037729,51.40394118,62.31052177,0.686221039,0.313778961,173.2025402,117.1208332,0.649693297,0.350306703,127.7526616,93.80802389,0.714635811,1.057622944,4.711197092,2.393336905,4.072887837,4.11e-05,4.11e-05,4.11e-05,41394,40761.0,0.101819568,0.12570227,0.003313118,2.82e-10,2.82e-10,0.2215460089282792,-0.4899465698270083,-0.1536444913575718,-0.671715699458486,-0.6551880617847169,-0.625526972309485,0.1268125137683251,0.9569161719198518,0.4048172006262624,-0.3134134398573617,0.369823408847688,0.2440029037466249,-0.0081701733042484,-0.4688314234210926,-0.2629676565304646,0.9482355453082716,-0.6924530534059649,-0.7455548886649003,0.4234624026265903,0.2440029037466153,-0.0081701733042458,-0.4688314234210743,-0.2629676565304581,-0.5209011303031852,-0.510259168802534,-0.5004867359017893,-0.2756138821095126,-0.558924267344444,-0.6850018890820868,-0.1647746979405497,0.6566682702602519,-0.2620601053384787,-0.5473678340416519,-0.174459048134681,-0.3806711013238986,-0.2535221742202336,-0.4585482834482524,1.111282903762225,-1.443470105440062,-1.3382710153988389,0.1674461620185739,-0.1711462454782942,-0.6015646356339642,-0.6891218143239742,-1.4529798520652693,-1.6894489932420689,1.803681477136945,-1.6271785351614698,-0.4521807969582218,0
35.3622689,88.93929622,1697.464567,139.3597489,89.29255253,0.082098768,0.052395377,1717.0,85.9908,0.050082003,117.0,39.37007874,78.74015748,871,4.703703704,0.023782666,0.004243908,9.24e-05,5.603954882,0.845785796,0.150926589,-5.462270841,63.1393694,187.4288207,0.336871188,37178.03958,2.968493706,5.277256595,2225.525098,0.598425197,0.608,0.934210526,0.0,50.53471908,50.45364297,50.60209366,44.0,0.517470414,0.482529586,45.42047996,43.86023256,0.748384643,0.251615357,162.1432247,94.01668736,0.724849827,0.275150173,119.0660433,73.35822211,0.857761606,1.096083842,7.700064494,3.213555823,5.407625223,5.07e-05,4.15e-05,4.15e-05,99293,99595.5,0.20758611,0.14682362,0.028586694,2.34e-10,1.91e-10,-0.0762063923322701,-0.0235983268187204,1.016250881379907,1.6250852900883412,1.6249228704474832,-0.1450645851268536,-0.1097113361629998,-0.4202974327129501,-0.26413558926485,0.2048901196407516,-0.0200196140283835,-0.5287607856517934,0.035712762256918,-0.266013187094485,-0.1974851560578641,1.2621583926277835,-0.076889804193718,-1.490910332057539,0.4787852977674257,-0.5287607856517883,0.0357127622569186,-0.2660131870944861,-0.1974851560578667,-1.1426608509688692,-0.7704621150146476,-0.6148155743550102,-0.5649398539997811,-0.7060096008561397,1.154448899406021,-1.0703944872058644,1.4721168026889344,1.8461826853296164,1.2771101534126963,-0.4923412000496368,-0.108300045189313,-0.1738146221763979,-0.0770776216737877,-1.07401912114662,-0.2368338064788162,0.7781491190241777,0.369709411772258,0.0160034462491816,-0.0901860296472491,-0.7811419887165492,-0.2695856817572709,0.7530794032678922,-1.0724185514780151,0.6934728183788144,-0.3484161691693325,3
36.70665206,44.17408743,1634.791855,88.79190241,44.27296997,0.054313888,0.02702123,1654.0,75.6126,0.045714994,106.0,23.98190045,63.34841629,483,4.510204082,0.003797126,0.001664463,8.79e-06,2.281292443,0.694125378,0.304268477,-6.39825297,31.30571729,121.7815169,0.257064603,11977.18922,3.890072722,4.785325021,1894.955827,0.619909502,0.61682243,0.909090909,0.13559322,50.58437295,50.56759127,50.59979749,46.72897196,0.521145035,0.478854965,22.6006627,21.66426049,0.502783918,0.497216082,86.3519339,85.87247148,0.503922141,0.496077859,63.1167428,62.62356402,0.954808639,1.366037085,3.608285413,2.973925921,3.232516924,1.93e-05,3.03e-05,3.03e-05,98438,77690.5,0.013797683,0.005141212,0.000326152,5.32e-11,8.35e-11,0.7804225398657393,-0.5587530986633338,-0.6911080740593345,-0.3543762795180607,-0.6699348918129147,-0.3524309640609284,0.7713932759685581,-0.8135109864325135,-0.7370861060692088,0.3063074286238757,-0.267447658067809,-0.6189941393334457,-0.5132879160374113,0.0204236475695224,-0.4022257910010684,-0.637748133173006,-1.1311622763154674,0.0769248464344411,0.6030783932432902,-0.6189941393334477,-0.5132879160374136,0.0204236475695216,-0.4022257910010619,0.1119266918062734,0.196106981376545,0.1948940831690256,1.0544085854936402,0.3309420004013155,-0.8796071021738229,0.1306281036373343,-1.961956358870793,-0.6048441256070296,-0.673939162690877,-0.6191467440743962,-0.6683925524663109,-0.649439589144716,-0.6146113498258029,-1.7850182123480838,0.725757198200107,1.740807888460582,0.4461755581540442,-0.9304386103126406,-0.6204587771535914,-0.6865239928318118,-1.176682675385974,-0.48063210741945,-0.7288737803017983,-0.6292419991437375,-0.745477894598773,1
39.00043884,56.63885115,1538.695067,128.3463302,56.75164415,0.083412453,0.036809666,1570.0,111.195,0.070824841,155.0,29.14798206,69.05829596,743,4.744680851,0.011095985,0.001703315,8.17e-05,6.514346613,0.86142257,0.132234685,-6.375178851,40.12947242,176.8689254,0.226888202,22297.94604,4.407457032,5.05523497,3118.168757,0.421524664,0.422727273,0.720430108,0.078431373,48.34301332,48.41457159,48.28514331,50.0,0.479914121,0.520085879,27.80747482,28.94791703,0.585721254,0.414278746,135.362083,113.8407803,0.58053851,0.41946149,97.71424969,83.05933167,0.923796302,1.127860718,4.308028655,3.425198682,3.751488823,1.45e-05,3.18e-05,3.18e-05,63597,69602.0,0.046582363,0.020549187,0.002172574,4.19e-11,9.21e-11,-0.8366620683091711,0.799685308723281,1.655739376430536,0.4507667526725366,1.460511403750129,-0.1018102484166785,-0.8355615544469059,-1.0862260281596576,-1.248504083792383,-0.1418342335130388,-1.260036904505039,-0.7719880650737454,-0.4840306756194353,1.470014127795305,-0.3579177601271075,-1.217863270118268,0.4476872312277315,0.9867570176798106,0.4320906297714353,-0.771988065073748,-0.4840306756194337,1.470014127795305,-0.3579177601271129,1.3457527051673333,-0.2817256601228154,-0.4821583057933524,-0.1688188557815703,-0.3971304004815786,-0.4757996914512063,-0.8138232304712729,-0.5822327301345355,0.0029737041732256,-0.2705639140844115,-0.9464411378697396,-0.4339877166116778,1.5110091488299675,-0.0765599199824998,-0.2879476077188816,-0.4622126845688721,0.2686770046776975,0.5685390325962233,0.6129030369532131,-0.4530530927098602,1.5699810044473428,0.9634843352407672,-0.8232651136953232,-0.7077134855306969,-1.162065713788117,-0.8133951478490875,2
40.45469423,53.27460376,1483.482609,136.0867215,53.37494522,0.091734625,0.035911849,1512.0,148.26,0.098055556,222.5,30.43478261,66.95652174,551,4.693877551,0.005463156,0.000955837,1.5e-05,5.715570203,0.84911044,0.148560933,-6.952922703,37.74178571,188.6016928,0.200113717,22362.37385,4.997158699,5.056488014,3769.890359,0.504347826,0.502222222,0.778761062,0.035087719,48.28836998,48.25944344,48.32238814,47.11111111,0.440099455,0.559900545,25.0455725,28.24951482,0.49880449,0.50119551,133.2020055,133.5208757,0.496542802,0.503457198,95.83854905,96.50352155,0.825080882,0.981476712,6.261925553,3.320883076,4.980060179,4.07e-05,2.91e-05,2.91e-05,126543,98948.0,0.11354107,0.103917993,0.007133934,1.19e-10,8.47e-11,1.1949861253646563,-1.0760220706170611,-0.6229371231336845,1.8939501946852384,0.0231661195123818,-0.2854291483726179,1.2470494246266604,0.7232734945011103,0.8511177501930203,-0.0864193624464538,0.5769724689737187,1.2528899437602128,1.5014798481499525,0.597297912790655,1.3207726106567252,0.6490839831120245,-0.0342016765080224,-0.6319612167014034,0.6582751897594658,1.252889943760209,1.5014798481499518,0.5972979127906546,1.3207726106567197,-0.8954215254249017,-0.4397875375367522,-0.4444216653193791,-0.2245367335435702,-0.52215293396652,0.4724218309380195,0.6094427407849842,-0.048548941897195,-1.326341739256504,0.2215346956498956,0.1737519273213513,-0.0740644286514843,-0.4856959665178947,-0.2822651130556556,0.5042728252869358,-0.2682180073276996,-0.4216655532876293,0.8571374960507983,0.2510488740133454,-0.0691467197051314,-0.0514424527314231,0.3669436989889236,0.8522641572646821,0.4420600692290446,1.9573507040968496,2.367089935333096,2
43.01173177,35.87056636,1395.269939,142.5312208,35.9801815,0.102153151,0.025708693,1376.0,174.9468,0.12714157,237.0,15.95092025,53.37423313,564,4.794117647,0.002587045,0.000240404,4.67e-06,10.76123578,0.913465302,0.084884796,-8.333189436,25.44183033,199.1820892,0.127731517,15920.19958,7.828921373,4.908918618,6237.523661,0.429447853,0.438271605,0.732394366,0.076923077,49.4007409,49.47469978,49.32159609,48.7654321,0.477608002,0.522391998,17.58343023,18.38933663,0.547126591,0.452873409,147.3310197,134.0413193,0.546010482,0.453989518,104.9180785,95.66933415,0.679170789,0.670674325,4.656700479,3.305709828,4.01725371,3.93e-05,5.68e-05,6.12e-05,95736,86642.5,0.047702052,0.02328965,0.002891129,1.72e-10,2.67e-10,-1.6621412882089643,2.1371720768739184,0.3126063757161778,-1.984190383688241,-0.1450104952772781,0.4392930225851197,-1.6869043895261229,-2.17320076684176,-0.8587106577778794,2.840053488834426,-0.3077266419812038,-2.296671670678069,-2.1263196777776323,-0.6795996622627763,-1.9151135648235984,0.9216795094488566,1.0342842698168069,-0.9207337927932142,0.4828657096669387,-2.296671670678066,-2.1263196777776314,-0.6795996622627776,-1.915113564823599,1.7307885623188426,-0.2932364528885529,-0.485764278590495,-0.8810287959498045,-0.4927358672641808,2.5281107016253723,-1.6261075503479148,-0.5855334831961927,0.7686603214438676,-0.6080913519857748,-1.824993487603604,-0.9577192754772074,1.3080247747422191,-0.6030366534379109,-0.1970533127086697,-0.2301749067944599,0.4298062459880019,0.5107981162432651,0.8734075927661822,-0.977211459918674,1.2235250731058835,-0.2321887017423726,0.452204350823155,-1.601789167890917,-0.298186978104439,-1.008697406354666,2
38.04704497,135.8928093,1580.441489,191.9851035,136.2165373,0.121475616,0.085984081,1623.5,131.9514,0.081275885,191.75,30.31914894,64.89361702,1212,4.372093023,0.007713026,0.004277513,0.000174409,1.803156706,0.634036903,0.351626068,-5.45438361,96.31963722,251.9947543,0.382228739,76252.87297,2.616234462,5.589226321,2637.109442,0.505319149,0.5,0.769230769,0.083333333,53.07328605,53.04834355,53.04360989,49.45054945,0.56888161,0.43111839,72.67026725,63.26216998,0.732572056,0.267427944,215.6833768,130.3151455,0.711694652,0.288305348,160.9352149,102.4308042,0.77963249,0.764443477,6.673863391,1.859818992,4.736634643,4.02e-05,4.69e-05,4.36e-05,95287,106329.0,0.214722947,0.241624558,0.020449828,1.35e-10,1.46e-10,-1.674829738740612,1.6898985711059722,1.973459141484995,-0.0285573333786203,1.7912169111909904,3.1617718625784934,-1.5226312379811449,0.0498403469543457,-0.9137182390383576,-1.1878479785260834,-0.9838381576703316,0.1206993082481529,-0.7452019868792558,-1.725878920644354,-0.8324368498027128,0.5542018062656995,0.6358136794196313,0.0785755480953726,0.6011936697015461,0.1206993082481557,-0.7452019868792573,-1.725878920644356,-0.8324368498027233,-0.7910688067066074,-0.5590472212173053,-0.5023240691528824,-0.3229555757143719,-0.5809870673711983,-0.2434780383924698,-1.0729278192016554,0.7073116256233098,0.598747128985671,-0.5424140193996738,-0.0676274908882077,-0.0532792702727314,-0.5658459091903176,-0.1659032835641318,0.2200942664385099,-0.6639941189303437,0.0276611091734129,0.6960103053315508,1.546983064627476,-0.1882602777984768,1.0754857475018065,0.6175997155466568,-0.168161107957766,1.4046842347466262,0.1322069140074488,0.8138972526123855,0
36.33318592,59.60102277,1651.730159,85.59607139,59.74916921,0.051822067,0.036083995,1669.0,63.7518,0.038197603,85.0,21.69312169,66.13756614,600,5.25,0.024158884,0.005732556,8.27e-05,4.214330538,0.805992213,0.191250355,-5.161593847,42.24904272,113.0020693,0.373878487,14998.68355,2.674665793,4.883023252,1208.971077,0.597883598,0.604278075,0.902654867,0.035087719,51.54166069,51.63639072,51.45675138,47.59358289,0.414857696,0.585142304,27.21738592,32.32418508,0.672037256,0.327962744,92.63669905,64.71406077,0.64048614,0.35951386,68.27277681,51.15057479,1.004631533,1.322504623,3.288227828,2.905534775,3.079465482,2.54e-05,6.34e-06,9.52e-06,147429,149419.0,0.003461983,0.001951831,1.91e-05,8.05e-11,3.02e-11,0.4191669460559554,-0.5155195791407684,-0.8824376828493754,-0.4815147486466238,-0.8076765595231027,-0.3681212626714821,0.4054635761853198,0.3372209937249122,-0.1210786538259861,-0.6216615679398706,-0.1653116631445577,1.5426088085441043,0.8861186321664397,-0.308623994830873,0.9646701253120202,0.9503632166928098,-0.3804574583314921,-0.5786130938372297,0.4735821415108555,1.5426088085441108,0.8861186321664429,-0.308623994830874,0.9646701253120304,-0.3464918446488667,-0.2706556224988783,-0.525029902310715,-1.0078935358481445,-0.5074444006153505,-1.354671267279666,2.130700951635885,1.3854763322999022,0.915923575777426,2.8139712546505,0.7098688465600648,-0.1395581253677006,-0.7488021669075815,-0.3155930506217898,1.9683523433935104,1.3077773778987525,-1.8524015578534552,0.4024590298292866,-1.0308729421232412,-0.0357059904907481,-0.4118493707253772,-0.505068137385792,-1.55261312901907,0.1239153196425922,-0.8829229341666589,-0.6409266952370395,1
36.23893197,73.05603266,1655.886364,110.6801784,73.44841642,0.066840443,0.044118989,1683.5,81.543,0.04843659,114.75,25.0,52.27272727,602,3.52,0.019425551,0.004089992,0.000110989,4.749532578,0.82219223,0.173110136,-5.499212238,51.93587332,147.9397784,0.351060911,24138.05515,2.848508534,5.089672385,1685.630885,0.625,0.626506024,0.923076923,0.181818182,47.37141233,47.54644717,47.2349497,48.19277108,0.400320889,0.599679111,32.8742318,40.23564311,0.525030158,0.474969842,107.1956319,101.9572191,0.511336567,0.488663433,79.283096,77.505424,0.757023103,1.16315081,6.500643517,2.955364171,4.28802354,4.07e-05,3.4e-05,4.07e-05,48687,50700.0,0.190378038,0.175990303,0.00469822,2.77e-10,2.77e-10,-0.5680295551287134,0.0083971232952112,-0.4446196305926287,-0.8393667000851223,-0.9096493203563852,-0.1022343105412881,-0.646684400871954,1.8562803414313405,2.673889238078423,0.5358171915805059,2.6268850431375634,0.6846168586359784,1.533409086423851,1.5123549271424817,1.2136955481179648,-0.0321988361367077,0.7610527131634743,0.4183751863815513,-2.7554893943469025,0.6846168586359849,1.5334090864238512,1.5123549271424817,1.2136955481179694,-0.918258134883543,-0.6484919839777193,-0.6252382930370196,-1.224557676274255,-0.7133638675317245,0.0591574821067344,0.1831693938584817,-0.086989652183387,0.610199729119712,-0.239564735026991,1.1459989476848618,0.8609549234767836,-0.204889359444446,0.355879636613469,-0.0560563890578459,1.1348705255395457,0.1635124302949905,-0.2871505431849286,0.7610035595993577,0.9057338473811712,0.3000464199344079,1.938708727071461,0.8597571494277036,0.3657805856273269,0.0898156023345475,0.0998254842549228,3
37.38038453,40.72302427,1605.244186,72.23864634,40.95456935,0.045001656,0.025368741,1601.0,89.6973,0.056025796,114.25,18.60465116,59.30232558,331,4.777777778,0.00663301,0.002103089,1.22e-05,3.15393639,0.758205325,0.240399688,-6.164347942,28.95925371,96.54417285,0.299958587,8783.41301,3.333793537,4.650633414,1287.433358,0.604651163,0.623529412,0.867924528,0.130434783,48.58611825,48.69497334,48.47062979,45.88235294,0.46075865,0.53924135,19.66217665,21.27092807,0.570632746,0.429367254,72.92969733,63.26165157,0.561558751,0.438441249,53.41040134,47.193691,0.53195718,1.432103897,5.366421539,3.13648455,4.198029792,4.27e-05,2.85e-05,2.85e-05,73542,73543.0,0.084172558,0.085620273,0.004010931,3.04e-10,2.03e-10,0.5334770959631412,-0.545252328127707,-0.5690843519652337,0.1299336643384383,-0.6385586577103662,-0.7315425034618749,0.5909106625524931,0.0382030709183631,0.1520791136425427,-0.4041527509975257,-0.2717632634871013,-0.6372085123018854,-0.7936631749130882,-0.9980620694382386,-0.9195814722869288,-1.9919959802864715,2.0207222446171045,2.4369428209847466,-0.9939029320990828,-0.6372085123018851,-0.7936631749130885,-0.9980620694382402,-0.919581472286929,1.4217331143118976,3.070401227050201,2.882911295987029,0.4832309413095991,2.897581070180407,0.3675108127098373,0.3607276587229249,-1.4661228459905753,-0.4621250563801457,-0.6745133386569578,-0.5989154694375316,-0.8142752033838877,-1.5691322362306688,-0.8796582522548153,-1.2651618218114715,1.9650184038153424,1.3175426729233048,-3.032427158351862,-0.5323026073486841,-0.7067181713877582,-0.23252974082052,-1.3391980804134012,-0.2717600934852662,-1.0416392204794669,-0.0120480505925046,-0.8584211150889266,3
37.6913063,38.61478693,1591.885463,78.73999507,38.69702424,0.049463355,0.024257265,1599.0,74.13,0.046360225,102.0,18.94273128,63.87665198,430,5.044444444,0.005139054,0.002279928,1.22e-05,2.25404241,0.691551248,0.306804896,-6.083611487,27.36292825,108.025349,0.253300994,9286.201918,3.947872393,4.674808233,1705.881173,0.524229075,0.526785714,0.813559322,0.0,49.17103585,49.19106503,49.15272188,42.41071429,0.427740965,0.572259035,17.89748586,20.70131504,0.573986621,0.426013379,81.84206208,70.50782164,0.565167555,0.434832445,59.23868299,51.96103038,0.924775981,1.269760545,12.01120764,8.370944838,9.118960539,1.65e-05,2.2e-05,1.93e-05,212170,247136.0,0.225491383,0.213208127,0.024432378,4.54e-11,5.3e-11,0.2142946276430643,-0.4128890411434871,-0.6562920103758236,-0.2083483025927575,-0.5903166452008752,0.2484384061000436,0.2017304000462272,0.6070593294656026,1.1949042834547523,0.3092568130814979,1.221073218247079,0.1380459746929896,0.3774929941711704,0.1102081640662784,0.131498371221935,-0.2838244200105718,-0.9388897987029466,-0.0974858479165943,0.4685621519067565,0.1380459746929911,0.3774929941711584,0.1102081640662784,0.131498371221938,-0.2077872019377755,-0.1694364032939071,-0.8659180475478592,-1.1132720274342778,-0.7587443335885055,-0.4092114197953818,1.2411756675040952,0.8026050520599387,-1.142332190619583,0.1934445303716093,0.3003636398441223,-0.4871240450943926,-0.8160395076735768,-0.6921660567879783,0.3515574582269449,0.8428097165550112,-0.1372743536909489,0.5531220757389275,-0.2540708347982942,-0.4742015716171032,-0.2144903520679502,-0.5207867731122798,-1.2239604822546124,1.2556211615581798,-1.0631931125230203,0.0609859949916666,1
40.11808035,35.16965684,1495.551181,41.61152707,35.30539416,0.027823539,0.023516184,1493.0,35.5824,0.02383282,51.0,18.11023622,57.48031496,214,5.08,0.011186572,0.007852392,6.65e-05,1.424606925,0.585516497,0.411002141,-4.846937045,24.96468363,52.68205441,0.473874527,4131.793822,2.11026325,4.323108752,444.6920135,0.57480315,0.587301587,0.918918919,0.023255814,49.00332226,49.04436556,48.96103736,50.79365079,0.474648701,0.525351299,17.20162783,18.09707159,0.472431175,0.527568825,36.21028781,38.2650482,0.472837909,0.527162091,28.34678944,29.93090304,0.729965954,1.902107526,10.61675776,6.552884505,7.602410703,3.11e-05,3.11e-05,3.11e-05,103778,108125.0,0.139650772,0.143581633,0.012450007,1.61e-10,1.61e-10,0.688049171891143,-0.7362538570969905,-0.5277884434887274,-0.8458173786360155,-0.9807705031754416,-0.6236054940996045,0.9518611581696867,-0.4400998231279225,-0.0404403428621671,1.197776747647138,0.3195874840415537,0.9195792482487722,0.353367536625038,1.3307629385160862,0.6074968695006966,1.3148485145562396,0.4604146858141947,-1.464792480117675,0.3563150259820138,0.919579248248758,0.3533675366250357,1.3307629385160862,0.6074968695006978,-0.7800505164409993,1.9948334895100988,1.3961465251464824,-0.9778835482809286,0.1124065679390378,-0.6311941575015475,0.6358004911187968,1.625685517692342,-1.4087102313589512,0.4033314671532522,0.2421897882066017,-0.3644308212024417,-0.5524512763471028,-0.3641771402058544,1.5246343426998763,0.1998464074365952,-0.8348692972126448,-1.009294662808986,-0.3931808320645891,-0.220217184308013,0.4211277585959274,0.0637381243308494,1.1970798686778268,-1.2965509345729251,0.1458764377460701,-1.2578881960993424,0
38.76226875,31.94288381,1547.827957,40.97284988,32.09931435,0.026471191,0.020637231,1550.0,42.9954,0.027738968,60.0,7.52688172,58.06451613,173,4.428571429,0.01947282,0.008622882,0.000104604,2.258272873,0.690518051,0.305772637,-4.753335959,22.69764285,53.13798533,0.427145341,3789.096931,2.341123511,4.285505825,497.6103472,0.602150538,0.615384615,0.964285714,0.133333333,47.92358804,47.9270401,47.9206095,50.54945055,0.461309017,0.538690983,15.42511154,16.66871782,0.537316002,0.462683998,38.95112198,36.1449247,0.525576588,0.474423412,29.62367271,28.14517486,0.653825516,1.817077277,11.73710523,8.062103703,8.898573821,3.43e-05,2.74e-05,3.43e-05,79398,86931.0,0.243970893,0.154503958,0.061237667,2.35e-10,2.35e-10,0.3786413367981502,-0.4841049802170889,0.973672158933819,1.4052091911648128,0.8412780496461075,-0.6396034217651376,0.2218708971136508,-0.1823111598569733,-0.3562251666150317,-0.6817465421084824,-0.8184759980908359,0.6654204600441387,-0.3358169589923545,-0.766599326677257,-0.503893617162363,1.5830471267740749,0.4444223573832129,-2.0873457591159474,0.6662100011053042,0.665420460044148,-0.3358169589923557,-0.766599326677257,-0.5038936171623634,-0.6310461062495939,-1.2830026551930456,-0.7875288900805419,-0.4740890248501978,-1.0510014102300038,-0.1158622692191971,-0.0577332103276047,1.841393249535987,0.7843105201404632,0.2083495765666579,-0.2550784755747808,-0.3039127368466721,-0.1422080717806746,-0.2956096728989181,0.738209473511442,1.9298438345065112,-0.9571992810684088,0.2431944000640692,-0.2230135271937211,-0.2512910044249455,0.7462180975183504,0.1700269246266279,1.105633153800745,-1.5022780244160638,0.4140751208745376,-1.345799918000721,0
38.78145965,43.85871586,1547.625899,121.5620122,44.00786416,0.078547414,0.028339352,1562.0,126.021,0.080679257,177.0,19.42446043,61.8705036,520,4.964285714,0.004731436,0.000647151,5.62e-06,7.311176044,0.878762541,0.120194417,-7.342930661,31.11825918,168.404208,0.184783145,16463.346,5.411749002,4.923488216,3645.445219,0.474820144,0.481751825,0.772727273,0.0,51.44282925,51.56081457,51.32718458,51.82481752,0.59021303,0.40978697,23.91247727,19.92504201,0.507539859,0.492460141,119.9742426,118.1785023,0.510270791,0.489729209,86.50325268,84.74422017,0.74650372,0.961853352,14.64693224,8.88633577,12.67025859,5.53e-05,4.61e-05,4.61e-05,108306,110195.0,0.230760461,0.210329481,0.013893253,2.55e-10,2.12e-10,-1.4121944980859875,1.6125067162530584,1.1094995027684444,-0.2502576835086297,0.4985370697271311,-0.8914923612832375,-1.2921618411119058,-0.5883226298224074,-0.3421151876501376,0.1037356250885079,-0.4399516014078529,-0.3637434513580431,-0.2855705323197431,-0.0548053415333278,-0.4453704037797883,-1.2637775152674078,0.8845578752666068,1.4890391153253633,0.2909969616758311,-0.3637434513580347,-0.2855705323197432,-0.0548053415333278,-0.4453704037797865,-1.0035839021934672,-1.0135914652174454,-1.547767464099714,-0.9594369772590112,-1.2870552029019833,0.1943614785957612,-1.2201849391624982,-1.4715053460200989,-0.4006758874539604,-1.0328028412903598,-1.16177876233984,-0.8547007351038555,-0.6666915522879011,-0.8653186898886781,1.314268677234689,0.9161125243864467,-1.7043409484681318,0.0222590592495799,-0.3050213733650171,-0.8755525440032282,-0.3549555687694561,-0.8400125474218597,1.4223197327533263,-0.8525292227958337,1.1055115676897165,-0.3179466886164072,3
36.85118919,43.6642146,1628.39819,81.51388502,43.76262909,0.05005771,0.026814212,1647.0,69.6822,0.042308561,101.0,21.26696833,63.80090498,439,5.525,0.005074225,0.00166416,8.78e-06,3.049120677,0.752053145,0.24664591,-6.398434685,30.94485179,111.262027,0.278125904,10816.46246,3.595493937,4.741055357,1600.167773,0.561085973,0.558139535,0.916666667,0.039473684,49.53320886,49.53550883,49.53228716,46.97674419,0.462521815,0.537478185,21.04582953,22.68717176,0.509985114,0.490014886,79.45582064,77.8846019,0.506577081,0.493422919,58.12122837,57.3616552,0.96438657,1.33638515,14.99455639,6.842081451,9.473160296,2.76e-05,3.31e-05,3.31e-05,107956,78734.0,0.20931358,0.182046199,0.023447483,7.59e-11,9.11e-11,-1.0183056910200796,1.0431894407820983,0.6264381709047755,0.9023024790656246,1.248400161963238,0.069951722929684,-1.0066994239992375,-0.9923286231823908,-0.5712665160710266,1.6909215405011475,-0.0464854522242258,-1.4425895342693318,-0.9381834141383794,0.561982305668844,-0.6882968507340689,-0.4345571337178593,-0.5621941996023794,0.5648430842953405,0.5101728339578644,-1.442589534269327,-0.9381834141383798,0.561982305668844,-0.6882968507340699,-0.0314293251411844,-0.2707863271418502,0.961387306506056,1.5312792755721591,1.1521673213751378,0.2733336335254438,-1.2308317469061545,-1.5830764870824068,-0.4375550688265912,-1.200717364725398,-1.2192517623477326,-0.9020544529604072,-0.4550332577485988,-0.7078524632948008,-0.1618972110145815,0.1899432559028191,-0.264836098195767,0.8153114402823041,-0.1899287706644747,-1.0313743385513363,-0.5521241041457985,-1.0718598627741074,-0.3367909638327978,0.4078695818269908,-0.9019557969940852,-0.0566488096994269,1
42.73865842,41.71922611,1404.02459,134.6056862,41.7596135,0.095871317,0.029714028,1386.0,137.1405,0.09894697,187.75,26.2295082,61.47540984,570,5.80952381,0.002237555,0.000572033,3.1e-06,3.911582182,0.795520984,0.203375756,-7.466313655,29.52850589,186.950591,0.157948182,17342.75895,6.331190333,4.946088298,4734.479099,0.418032787,0.421487603,0.676470588,0.0,47.1033977,47.30613678,46.88328896,52.47933884,0.460566511,0.539433489,20.06147577,21.71129119,0.456905827,0.543094173,126.3688959,137.7730947,0.45699512,0.54300488,90.47530232,98.62252735,0.933621008,1.05303034,13.19726918,8.4815053,10.08543413,4.05e-05,3.47e-05,3.47e-05,133050,114238.0,0.1684052,0.143775089,0.021884661,1.17e-10,1e-10,1.0193068512660868,-1.1106924414044044,-0.2129458591874229,2.3241967413302858,1.1560997035412888,-0.2092277990766781,0.9862730183703172,1.9086982424654173,1.954011921661745,-0.008779109581817,2.197267714955825,1.867825743998321,2.4422683825323173,0.3920369619801833,2.2996325323799267,0.0072854581056024,1.886660003750048,0.0167061448228485,0.5335684862830359,1.8678257439983408,2.4422683825323177,0.3920369619801833,2.2996325323799227,0.6719515090591726,-0.6646398286776194,-0.0453061332403585,1.0700913571264847,0.0955455827481821,-0.6550762386066443,0.8109470116131371,-0.1278622883231221,-0.4567033531525015,0.0239723550407605,1.55591360821962,0.9331951409422928,0.5738443937930725,0.8760653360201517,-1.1649501443873245,-1.2407167591374584,1.2324387627296949,-0.0789890052555533,0.2531221940143169,0.9809709401018352,-0.4501301668875853,1.1903764856686236,-2.205254923345442,1.2231417642068714,-0.4791244579678523,0.494060921444662,2
43.68750974,69.31572228,1373.939759,144.0933011,69.44641642,0.104875996,0.050450336,1399.0,143.8122,0.102796426,204.0,21.68674699,55.42168675,963,4.882352941,0.010347984,0.004078507,0.000185673,2.537199019,0.708176005,0.279117247,-5.502024295,49.10603198,197.5527698,0.248571721,30476.69285,4.022983774,5.190937948,3179.00635,0.514056225,0.514285714,0.753968254,0.117647059,48.40198064,48.95419219,47.97979073,50.20408163,0.304773246,0.695226754,27.11331,40.95032539,0.516160085,0.483839915,141.9303689,137.4149455,0.503855831,0.496144169,102.1747552,101.3898328,0.904601568,0.942468385,10.40409969,8.879638518,9.307058101,3.78e-05,3.2e-05,3.49e-05,158514,152934.0,0.057151048,0.031233946,0.003236583,1.1e-10,1.02e-10,2.0065238266187846,-1.5750924345994497,-1.518656469270387,-0.7481303113870121,-1.5816610722248812,0.6593655677049138,2.0595176295414093,0.2472405630696896,0.1461058593893413,-0.3375796375360259,0.0954611965318927,0.1449998357860122,0.5531843358113965,0.8973038513985683,0.5903914705914716,-0.1678035604429734,0.6783767241315336,0.0409334615463266,0.8510696027605391,0.1449998357860117,0.5531843358114017,0.8973038513985683,0.5903914705914739,-0.0800797739126577,0.7085677568573553,0.5898533314600639,0.96463819196915,0.8992525435123028,0.3925161153232104,1.1443500688332675,-0.1076450899676718,0.1870483856215158,1.580127203084425,1.0170013594129474,0.4547205144857011,0.558884786302062,0.5822978357527008,1.0086059548168558,0.1467047594234909,-1.01408800176934,0.5871887432055548,0.6162377095739178,0.5440524042089344,0.4890439946149159,1.4349073297577906,0.04255206585537,-0.1960434425999106,-0.6881041389752913,-0.2010821726803149,2
44.56175007,36.57990276,1346.260355,118.4934332,36.62234097,0.088016729,0.027171492,1325.0,97.8516,0.073850264,135.0,14.20118343,59.76331361,508,5.451612903,0.003596129,0.000512969,5.63e-06,7.010419323,0.873965935,0.124666713,-7.575294742,25.89590564,164.1563078,0.157751511,13354.83578,6.339083486,4.832608662,4162.40216,0.402366864,0.403614458,0.641791045,0.075,46.27584822,46.58413679,45.94506121,51.80722892,0.478084867,0.521915133,17.93810049,18.74234375,0.51899366,0.48100634,118.260198,113.8499845,0.517996797,0.482003203,84.57910464,81.58766576,0.854374315,1.058120927,11.08566467,9.564769993,10.29186434,4.81e-05,4.81e-05,4.81e-05,105865,106893.0,0.08782023,0.074838201,0.002646039,2.1e-10,2.1e-10,-0.5968130533163036,0.5568143284823631,-0.057883084475642,-0.3657990661981576,-0.2313241172978987,0.4648809568690211,-0.649031976077735,-1.2412293391271445,-1.2441258518238372,1.2566873176917477,-0.9305391418456664,-1.1196104445502764,-1.23446386075736,-2.0207658037021323,-1.3458188351941331,-0.9812065438628244,1.0073170797496842,1.0230158098603754,0.6540106491534708,-1.11961044455027,-1.2344638607573586,-2.020765803702133,-1.3458188351941345,0.7865063448292118,-0.1083698668994289,0.194187708314604,0.8944476384472223,0.4271449581683438,2.510759384249911,-0.9682646625769924,-0.4824311257925304,0.7928131110374307,-1.2382699069238872,-1.5285737904124252,-1.1732654851917743,-1.5763963820894331,-1.1462503514338405,-0.3937740361961733,-1.764588763706376,0.2231381408276538,0.4002026567447087,-0.04506919337851,-1.1653033094402891,-0.162283433976605,-1.1569631822131654,0.1769738174647546,-1.1396947384880876,-1.231270015137137,-1.3033673962574084,2
37.40604012,39.06905815,1604.194595,55.75962554,39.17438366,0.034758642,0.024354314,1610.0,56.3388,0.034993043,72.0,21.08108108,61.08108108,370,5.441176471,0.016613102,0.006189513,2.97e-05,2.684072505,0.727612441,0.271085241,-5.084898841,27.70047234,73.9886267,0.374388248,6438.756684,2.67102401,4.515772124,790.5015934,0.567567568,0.571428571,0.923076923,0.046153846,50.49370106,50.49491761,50.49180642,48.35164835,0.507313356,0.492686644,19.73056213,19.44404892,0.459864092,0.540135908,50.17411447,54.37715621,0.465697608,0.534302392,38.12306942,40.83470433,0.938231322,1.603449871,13.22987743,8.760074798,10.50323204,5.03e-05,5.7e-05,5.7e-05,137201,132985.0,0.276866689,0.276806833,0.020100536,1.69e-10,1.91e-10,-1.4971967640547663,1.642181833251466,2.092004203955233,-0.4407190557217703,1.2921543296124691,2.8021468203177906,-1.4955399654039427,1.4059465705473284,0.0295265901028691,-1.3256700701916115,-0.547034160995802,0.4908879924324839,-0.1694718526541901,0.118725930792829,-0.1078134124383419,0.2641604906622404,-0.6177392928755671,-0.1407574205590328,-1.537860845464891,0.4908879924324755,-0.169471852654191,0.118725930792829,-0.1078134124383434,-0.635250664901698,-0.8564349377316876,-0.4763115120041419,-0.5005990687620357,-0.7081613780159384,-0.8055434142627799,-1.582143196673097,0.3305186239735523,1.7936478511281722,1.2257776406101355,-0.560512748895015,0.0058883407314932,-0.338844314186276,-0.3140630546779983,-0.4046946307215304,0.0502805416352308,0.2298885663162827,0.7542459159340776,0.5211095832611501,-0.218615284747985,0.8613748559567111,0.0017666046027111,0.4846978171365246,1.6002134627815854,0.4967326634764538,2.081017839674198,0
36.22343535,40.04439026,1656.534392,49.84235928,40.1512033,0.030088334,0.024173594,1659.0,48.9258,0.029491139,67.0,15.34391534,57.14285714,278,5.25,0.027187008,0.008229591,2.95e-05,3.303567434,0.766995876,0.232172005,-4.800018986,28.39118812,64.69844937,0.438823317,5770.684251,2.278821481,4.468197422,589.7448648,0.529100529,0.52972973,0.836734694,0.015625,49.84445213,49.84770271,49.84140926,42.16216216,0.413337402,0.586662598,18.25312221,21.74598125,0.550704202,0.449295798,48.01236147,43.36706696,0.528523215,0.471476785,36.3205405,34.30444721,0.895460264,1.676129287,12.81692042,8.743960201,9.480927407,1.59e-05,1.59e-05,1.27e-05,128410,142753.5,0.242595362,0.101431436,0.095479868,5.03e-11,4.02e-11,-0.3701059375202072,0.1849746147890726,0.1493086231030177,0.0191201170672997,0.4799936367710284,-1.0056736489352778,-0.2705079628700913,0.4468612150327081,0.5543291565366011,0.1259639250846212,0.7030924648914181,0.3770646807685101,0.8082982878249275,1.222549015538037,1.1068464178382418,1.5585844870558472,-1.7542465245943206,-0.7320808157618216,0.7879573913471634,0.3770646807685135,0.8082982878249316,1.222549015538037,1.106846417838247,2.776056626595851,0.6771280269952951,1.0831620739927783,1.2941360714099868,2.0682808500782963,-1.402406025598952,1.275600001382457,-0.236462609530971,-1.21206681598282,-0.951317368196954,1.5323330490297125,1.1103385363047569,1.0557610909787325,0.99566126678419,0.1763834066742197,-0.1044265360294474,0.1549980494110104,0.0310904917897134,2.303085784118694,1.1679289765522487,1.5131828604419413,2.0203717556586334,-0.5853573034431282,0.4238392042725558,-0.0125032701437918,0.5699847314879668,1
38.27733052,35.78680835,1568.010753,70.46298668,35.91511333,0.044937821,0.022823063,1560.0,66.717,0.042767308,86.0,10.75268817,50.53763441,411,4.227272727,0.005373561,0.000915303,5.95e-06,5.8708034,0.853649407,0.145405892,-6.996255872,25.39582018,93.02812458,0.272990779,7422.09283,3.663127393,4.577496492,1363.095486,0.516129032,0.532608696,0.836734694,0.12,54.11572942,54.49041086,53.77036213,44.56521739,0.584770505,0.415229495,19.4569121,16.39552338,0.586588913,0.413411087,71.24939666,59.81434142,0.586462354,0.413537646,52.22570226,43.85526552,0.561668363,0.935460648,13.47828493,7.654496571,10.21584587,4.07e-05,4.07e-05,4.75e-05,77076,77938.0,0.225594638,0.243961821,0.017387862,2.77e-10,3.23e-10,0.7021989204472258,-0.7783143870723114,-0.9161860008840352,-0.3985861794593183,-0.8322146863473382,-0.8845912944471251,0.5541890987261542,0.4057601895363925,0.6467219403151183,-0.4751392991219861,-0.0091310709726157,0.1421416150686761,-0.0973381763006195,-0.135829722300229,-0.2521026420803009,-1.5513211119582029,-0.8116234714447124,1.1322222793499044,-1.9135288655460487,0.1421416150686594,-0.0973381763006211,-0.135829722300229,-0.252102642080301,-0.8691292399249917,-0.6498863587503851,-1.5638031497135083,-0.9594369772590112,-1.2139909337416086,1.217278920032969,0.0527196516534105,-0.4540081176892774,1.4780343110295917,1.5119321346495065,-0.4577126710633214,-0.7992850633457903,-0.0889057194259433,-0.5632569436636176,-1.673045791281817,0.2178555171120583,1.532683658937206,0.5990485047443252,0.0777369854062357,-0.7470353144578864,0.3765002545727721,-0.4103990020772671,0.3025106357939542,-0.0504318768046177,2.471607621210881,1.361095648935489,3
35.68285836,34.79161954,1681.573171,69.96189977,34.92448202,0.041605029,0.020689923,1699.0,63.0105,0.037086816,95.0,17.07317073,63.41463415,291,4.315789474,0.002992498,0.00200318,6.77e-06,1.493873305,0.598206876,0.400440167,-6.213019114,24.69533807,94.70965133,0.260747851,7347.82977,3.835122689,4.573129196,1452.892531,0.548780488,0.567901235,0.847826087,0.0,54.11218895,54.28108383,53.94882059,39.50617284,0.505849236,0.494150764,17.60628439,17.40150856,0.646188278,0.353811722,76.13314586,56.33526566,0.637213899,0.362786101,55.25503212,41.69217347,0.680751035,1.678430784,11.25931856,8.370212597,9.115193009,2.85e-05,2.85e-05,3.56e-05,52458,38564.0,0.094730994,0.040979003,0.01484953,2.03e-10,2.53e-10,-0.1143987906671073,0.0576802079756739,-1.0611707919832538,-1.3931705511243582,-1.300175927014828,0.0094105456856077,-0.2615010325045341,-1.577274535000305,-1.9714266864382268,-1.855427310554741,-1.744864653130768,-1.82002212086226,-1.473766741802199,-1.6555689737478805,-1.3925699001432807,-0.0454357918941642,-0.6770554388753941,0.2557024282709121,-1.667473393161039,-1.8200221208622565,-1.4737667418021978,-1.6555689737478794,-1.3925699001432803,0.0038422502181337,1.635618569542614,1.061898251266137,-0.769874910679541,0.2641554346567389,-0.5689560067428092,-0.1014351364588136,-0.1372113788557223,0.0221893684372262,-0.7238274263397452,0.5351067659201124,2.380630807281088,2.4480798104656394,2.494669934294645,-1.315297499562601,-1.383664498084857,1.5394608021833938,-2.917379619688818,-2.361007724909708,2.2906382306877666,-2.673464195853223,-0.8811658570465545,-0.3804034186065217,0.1268430650312567,-0.2576526192564813,-0.0844119551803633,3
44.44590879,562.1300156,1392.684615,471.4870181,563.2097306,0.338545434,0.40363052,1694.0,202.3749,0.119465702,731.75,60.76923077,77.69230769,1572,2.626262626,0.083478628,0.142223047,0.007128808,0.586955696,0.358538222,0.610843757,-1.950358699,398.2494197,535.1892844,0.744128164,669595.3572,1.343854524,6.532782544,2876.866164,0.557692308,0.562015504,0.8,0.126760563,49.60567515,51.10574206,48.19468792,41.86046512,0.398314851,0.601685149,251.3477817,308.9203034,0.630217503,0.369782497,424.8666473,325.447234,0.547568974,0.452431026,349.0611518,317.2913929,0.732583171,0.565920683,2.509719139,2.29196034,2.400253074,4.95e-05,3.3e-05,3.58e-05,190026,199082.0,0.008020778,0.006810979,4.14e-05,1.36e-10,9.84e-11,1.7418976942191746,-1.3447740428962889,-1.3184797064628024,-0.2393463752871051,-1.196487638245054,-0.3685654696070484,1.7676090630494752,0.9361155127826668,0.6973134357478497,-0.4326389941065752,1.2513429044280768,0.9951834291329829,0.6342464388716983,-0.2668421811662712,0.8984478510004499,0.746793235910536,-0.7434943269203959,-0.959192253171612,0.8736797513837973,0.9951834291329864,0.6342464388717015,-0.2668421811662895,0.898447851000459,-1.677044023230088,-0.937071505733052,-0.4836828239234374,0.6870712366732574,-0.5130303020390902,-0.2956581041017979,1.695789486142254,1.251521304198605,0.4073952839579636,2.2177457168371104,1.2876234703430551,-0.3602644886675525,-0.9239409119432984,-0.7556857839802131,1.769636312981503,-0.7782609790304962,-1.631442080450406,0.1093807920371089,-0.7638434104342704,-0.0109187221335974,-0.3564932840076145,-0.481213389302362,0.3595309188102227,0.5925939715485936,-0.2991996054408238,0.2286412945259665,1
35.47539198,22.77921985,1691.212389,34.80851993,22.8795669,0.020581992,0.013469166,1690.0,35.5824,0.021054675,44.0,0.884955752,38.9380531,181,4.346153846,0.004319365,0.002667822,1.41e-05,1.619060822,0.616940827,0.38104858,-5.926493007,16.17829691,46.64113109,0.346867594,2370.564345,2.882944438,4.081821858,537.8551579,0.592920354,0.603603604,0.895522388,0.09375,49.16584887,49.16201599,49.17001064,53.15315315,0.492325693,0.507674307,11.35265973,11.5282653,0.441390808,0.558609192,30.98708448,34.85965726,0.446861858,0.553138142,23.33540537,25.96244023,0.763306751,2.079441542,5.976737559,4.350224414,5.20994675,6.22e-05,5.7e-05,5.7e-05,105436,109055.0,0.13837295,0.125504247,0.0072697,3.22e-10,2.96e-10,0.3432621106769865,-0.1602164287349577,-0.0415126601515529,0.011243247772299,-0.0317569829666431,-0.075055258544799,0.2899031076035679,-0.882489682741843,-0.7078030038882127,2.4312481701165014,-0.2725214246319225,-0.7349019907169833,-0.8437123725641653,1.446055503020885,-0.4934014159056006,1.175985680444253,2.261735347701066,-1.446787083560477,0.9626827900832208,-0.7349019907169865,-0.84371237256416,1.4460555030208864,-0.4934014159056005,-1.0972620350192543,-0.7933671949012813,-0.6579946599607946,-0.8839891018956448,-0.7739750710511234,0.6942774174419954,-0.124879647133728,0.3797510276353411,-1.358057285909762,-0.6867145861437436,-1.070095328472328,-1.4040393226582537,-0.5636435554405033,-0.948106829463597,-1.3797106068420906,0.6327940673991812,1.7397883991312684,0.5147968800015815,0.2600979437077048,-1.4257467241433894,0.2075195177532749,-0.5099554285205506,0.1914753794387313,-1.0817981937774666,0.7965718269984241,-0.589802438880147,0
36.91750197,23.09860287,1625.438202,47.09973824,23.2061206,0.02897664,0.014210693,1630.0,47.4432,0.029106258,71.0,1.123595506,35.95505618,209,3.708333333,0.003558762,0.001395863,5.99e-06,2.549505855,0.717403296,0.281389154,-6.574242243,16.40920524,63.88954189,0.256837109,3293.572243,3.89351836,4.224637304,995.0204175,0.550561798,0.568181818,0.82,0.095238095,52.87990196,52.77264441,52.98972043,48.86363636,0.535972909,0.464027091,12.02607321,11.18984556,0.542960115,0.457039885,47.07753753,43.19234913,0.542526856,0.457473144,34.35783009,31.54989435,0.609540698,1.115561847,8.734989899,5.302214779,6.820880318,6.85e-05,5.48e-05,5.48e-05,70414,76359.0,0.218532348,0.245615741,0.019213248,4.69e-10,3.75e-10,-0.6466569082375911,0.6187589699290234,0.1705817625315797,-1.2023176004242495,-0.282810368310215,-0.5709497667654947,-0.5681197052359902,-0.9857344955738276,-1.1823077721714166,0.3713088274509082,-1.1782512051833824,-0.7214545904891002,-0.9510820975962142,-0.9301708967375064,-1.4253568650887865,-1.4752848883560536,0.073843181707929,1.121505073921635,-1.0095556835194146,-0.7214545904891037,-0.9510820975962172,-0.9301708967375042,-1.4253568650887876,-0.3658447575840488,0.9587771458771988,0.5890129029168676,0.7974798079694772,0.5597426372326021,0.2642866325137111,-0.3232275790140859,0.949775841343188,0.4435780251154448,0.4786815896487458,-0.9076049060292968,-0.9287106505641436,-0.1633594557263756,-0.7496326543308284,-1.504071081063198,1.6107136468839818,1.1415940381624496,0.3378277177843326,-0.8000599120420184,-0.9470995188253064,-0.568680575477106,-0.6427485659593085,-0.0192131758521441,-1.2096911640014512,0.4131055688696468,-1.1186501669644366,0
41.60278314,566.3764655,1485.347222,452.2910802,568.3670317,0.304501919,0.381309136,1766.5,54.8562,0.031053609,636.25,50.0,71.52777778,1253,1.5,0.058668484,0.123494484,0.006012373,0.475069674,0.311775623,0.656273469,-2.091558791,401.8961823,499.274437,0.804960464,630380.9553,1.242297038,6.506573194,2480.988617,0.534722222,0.539007092,0.763157895,0.023809524,49.93471504,52.10021661,47.96129479,41.13475177,0.366358018,0.633641982,243.257869,319.9160431,0.66079461,0.33920539,405.8565661,290.7841316,0.545025135,0.454974865,334.5847748,305.697306,0.49932423,0.452032056,2.948495997,2.081209196,2.4079233,4.15e-05,3.69e-05,3.69e-05,99784,108366.0,0.021438103,0.014938899,0.00038076,1.91e-10,1.7e-10,-0.7742084572562619,0.7759499547238717,1.2089436560445312,1.3821015942138832,1.5496252888341262,-0.3837531219243488,-0.7819435721356134,-1.1052478122963303,-1.300100665609705,-1.7252248301468265,-1.601185369952383,-1.2558401819869076,-1.3900429473377838,-1.0725613123230615,-1.7473252394654115,-2.022961508138284,-0.813643246768724,2.276062510798785,-1.1447585375233555,-1.2558401819869105,-1.3900429473377844,-1.0725613123230595,-1.7473252394654109,-0.196075155695994,0.4041838252732155,-0.2328343764463756,-1.218014328900251,-0.3583963648467742,1.8648052031356324,-1.1387694619637247,-1.43878038901033,0.0407241716748837,-1.1351845707440162,-1.2275784598252142,-0.7732600017610912,0.1316191612550908,-0.4726208691857565,-0.3409713128028657,0.3917570425426493,0.3533494132850847,0.5555832163787464,-0.17212325550809,-0.9492075866172136,-0.6623898025937035,-0.4694410318918289,0.0378298059473953,-0.9729843717506412,0.0955630260534379,-0.842467032657335,3
43.55053934,560.6629687,1421.822835,480.1484332,561.7742918,0.3376992,0.394326884,1735.0,141.5883,0.081607089,712.0,56.2992126,78.74015748,1933,2.466019417,0.036627656,0.079931116,0.006071792,0.458240268,0.298682929,0.651804194,-2.526590066,397.2344112,551.4291516,0.720372527,688155.2973,1.388170652,6.544656567,3061.911059,0.582677165,0.585657371,0.87755102,0.109589041,49.99373368,51.07913273,48.99405776,43.42629482,0.428052603,0.571947397,259.8935107,300.4172792,0.577843976,0.422156024,419.1746559,358.2830126,0.526668552,0.473331448,348.7492144,330.6185557,0.725372278,0.434269215,2.627039818,1.8725291,2.18389666,2.48e-05,3.31e-05,3.31e-05,106586,93806.5,0.009109772,0.005573528,0.000118723,6.83e-11,9.11e-11,0.3945079184743323,-0.6051169749969931,-0.3501687714840154,0.3295509148405026,-0.260638220202595,-0.1135541911630724,0.4500184758115202,0.6384425049662931,0.6174242289509195,-0.359603100204332,0.883064847106147,0.7372250197427044,0.8160253358829911,-0.6310819672438894,0.8132269968261944,0.7212407021649778,-1.4338230426973937,0.2258044401883908,0.9067783284284106,0.7372250197427124,0.8160253358829872,-0.6310819672438874,0.8132269968261938,-0.0380449411725391,0.3166840684100132,0.9963369889451408,2.209004320779042,1.564863228982656,-0.642910653940873,0.3852462835370248,-0.0978188779132472,-0.3446783014444755,-0.3494009631167885,1.4037655439945544,0.0284254579998471,-1.108215717739145,-0.5203925253212731,0.506605757634844,0.1591105539431324,-0.5245930578745442,0.5013914805502743,-0.5849635330227821,0.3647875422623101,-0.038697833565036,-0.3825920996434649,1.21732818428018,0.6456097970144351,0.8639548030211436,1.865193542380852,1
47.94681885,566.0020612,1298.407547,453.1200422,567.0619466,0.348981368,0.435920187,1531.0,370.65,0.242096669,736.0,67.16981132,86.03773585,1438,3.785714286,0.077515509,0.120297165,0.012243996,0.644366883,0.369021889,0.572689098,-2.117790218,400.9733478,498.9265629,0.803672078,628495.2586,1.244288593,6.505272116,2483.234524,0.539622642,0.540229885,0.843971631,0.144927536,49.49641217,50.79773538,48.26310199,44.06130268,0.410228307,0.589771693,256.8265493,307.9420993,0.571039319,0.428960681,377.0245523,326.7724011,0.507930923,0.492069077,322.5735493,317.4968808,0.846540838,0.829662367,2.455114553,2.270043404,2.355090466,3.47e-05,2.89e-05,2.89e-05,177960,134980.0,0.007899529,0.007359683,3.37e-05,1e-10,8.37e-11,1.0966888481172572,-0.746333863259759,-0.9686790526516876,-0.9454715059025356,-1.2225861042467316,-0.6030910774835027,1.136669807215655,-0.267412162016406,-0.1724935053709092,0.3341881852235279,-0.0617050101932206,-0.3070081129863141,0.0251107572396121,0.6714770836862485,0.358288207106067,-0.1850734769667769,0.7913446650800988,0.4484661410407884,0.8759338092374332,-0.3070081129863106,0.0251107572396095,0.6714770836862501,0.3582882071060487,1.899531493042781,-0.6398461041898853,-0.5689456319708243,-0.1578435519886154,-0.4163840912938926,-0.9618984613511868,-0.0531473045784919,0.1994891303378189,0.0251324484744531,0.1522884838100267,-0.3669616485760714,-0.4442688964711302,0.2076179284999547,-0.1158611537862378,-0.1021139973890673,-0.4763108302979,-0.619760496218996,0.3995471019038376,1.4790961113657202,-0.4656009770825651,0.6247670544658591,0.2620523121750528,-0.979646527373354,-0.4162125267575839,-0.5455194347935289,-0.9175006274384444,2
36.16570628,70.67783314,1659.451456,88.77895308,70.84888304,0.053498976,0.042591082,1680.0,61.5279,0.03662375,93.25,13.59223301,51.94174757,630,4.12,0.028638995,0.007077976,0.000128718,4.046212281,0.798952263,0.197456833,-4.95076722,50.09772564,115.3233232,0.434411048,18150.35113,2.301967239,4.965855141,1061.882047,0.466019417,0.454545455,0.733333333,0.0,49.22032919,49.24154623,49.20224598,45.95959596,0.497585074,0.502414926,35.33977235,35.5108724,0.610518736,0.389481264,90.10868395,71.97148007,0.592589225,0.407410775,68.44148754,56.7490793,0.920878657,1.129608389,3.955587873,3.090881636,3.318722894,2.91e-05,3.78e-05,3.78e-05,122476,120421.0,0.058052823,0.030245479,0.003184051,8.47e-11,1.1e-10,0.5824666802945373,-0.5884397552028597,-0.2920259088099048,2.448062340744173,0.6322526608813503,-0.5783669923158042,0.5718646272959081,0.1908202191923465,-0.0857380915232642,-0.7144164405696205,-0.0135555822041344,0.0517850179403514,-0.3789364433836742,0.0719117641356537,0.0870140099261922,0.7990292426959617,0.4252773953019519,-0.616456747788534,0.6871463019266295,0.0517850179403554,-0.3789364433836675,0.0719117641356555,0.0870140099262036,0.809713204719297,-0.9993448834177948,-0.7927815894188917,0.1040936220425821,-0.6483349970823666,-0.2170772469183862,0.6657123556336366,0.2499572051412276,-1.8090401320256664,-0.5211807826937952,-0.2029768902911871,-0.9896732226411844,-0.8809308333933962,-0.8374663147986519,-0.0671040133379301,0.8061657769670697,0.4884267918672287,0.3901501372387366,-1.1225753849272722,-0.8693658802382583,-0.3705617240045398,-0.7302061785343408,-0.7109304424642914,-0.5016052721449983,0.1309314031801383,-0.4708035838762167,2
43.45738097,482.9295299,1416.025,407.290633,484.4060253,0.28762955,0.341045907,1627.5,140.847,0.086541935,580.25,50.625,75.0,1218,2.222222222,0.05408706,0.117890048,0.008178125,0.458792414,0.300224751,0.654380372,-2.138002886,342.5267853,460.1942477,0.744309141,495205.657,1.343527769,6.401755707,2473.135004,0.53125,0.537974684,0.811764706,0.021276596,51.10644484,53.15240054,49.27174427,40.50632911,0.37422588,0.62577412,209.5586985,270.986454,0.661538262,0.338461738,374.2990026,267.7293452,0.559098617,0.440901383,303.3270442,269.3628227,0.593656713,0.53988847,3.096130654,2.525856468,2.726846389,3.06e-05,2.62e-05,2.62e-05,79558,77414.0,0.029351465,0.018655321,0.000878472,1.34e-10,1.15e-10,-1.6350243299438392,1.9217394168311908,1.8410426993069249,-0.4686667306332703,1.4967354772024075,1.5977057036583453,-1.6275616664477002,-1.3186789383179824,-0.7958840416249281,1.1875794482419986,-1.1444164720018624,-1.0048703570567452,-0.2008778445399623,2.288726894220621,0.0040264098596432,-1.208857217581986,-1.0501945450850716,0.7206838630424545,-0.6076066339993071,-1.0048703570567468,-0.2008778445399591,2.288726894220622,0.0040264098596513,1.7516667001546695,-0.6375082529886782,-0.653256089909634,-0.3677474641404706,-0.6386703760078469,2.072993448141034,-1.632692496284876,-1.1917213128861948,1.3935441992419195,-0.6787164126961636,-1.273479300593831,1.4804303409425366,2.908264695981987,2.648083390147447,-1.2977756478160256,-0.6316984116118144,0.834368378337537,0.352319299499843,1.8225968838795783,1.414155917690915,2.6646644823906622,2.958338727541897,-0.5221362064450239,-1.306727239428192,-0.338765222500013,-1.1792344120627594,2
34.66632276,34.12310017,1731.011628,48.2172215,34.22085235,0.027854938,0.019712808,1736.0,52.6323,0.030318145,70.0,14.53488372,50.0,223,4.3,0.005504265,0.002736202,7.77e-06,2.011643714,0.667325992,0.331731702,-5.901184276,24.19779675,63.8522603,0.37896539,4854.024597,2.638763394,4.393072083,673.9640285,0.575581395,0.572289157,0.852631579,0.055555556,50.79581628,50.79599018,50.79512629,41.56626506,0.450755864,0.549244136,16.2471717,17.93452143,0.567523351,0.432476649,48.1025548,41.99113439,0.552857882,0.447142118,35.90143706,32.28701307,0.87807482,1.539394069,10.88421537,4.280052258,7.548751533,6.03e-05,6.37e-05,6.7e-05,111986,104394.0,0.240465479,0.259560632,0.0277874,2.02e-10,2.25e-10,-1.6249543613069954,1.6364684250227204,1.5634818116112346,-0.2267024009590011,1.4625534155364937,2.6774418230534067,-1.5961735288725885,-0.3629688767350373,-0.7080586721489527,0.1231493803508163,-0.4573111212386859,-0.6869049869846979,-1.0007519767750377,-0.2792086476710893,-0.9935131488934116,0.2410275853616338,-0.2298346139868649,-0.670632758974157,0.5723611103339281,-0.6869049869846938,-1.00075197677504,-0.2792086476710874,-0.9935131488934118,-0.4903073810338937,0.3825741544714339,0.2558445616361717,-0.2491161254217727,0.0765115835066145,-0.4659785807405826,-1.2709873287107076,-0.6634261365324138,1.985077043299553,0.1044089528044029,0.0264270585838426,0.4347058809458614,-0.2716794437036042,0.1620937856376358,0.0714169219414272,-0.0177003322920424,-0.3731642222989516,-0.2812038972889614,0.6844653409467205,-0.0106886097493923,0.4827281364750516,0.537607300908942,0.3384221989379766,1.293071539145621,0.5683954226823913,1.242990704903834,0
46.51153646,550.33126,1332.446809,458.7658383,551.4922802,0.344303304,0.413023061,1578.0,345.4458,0.218913688,821.5,68.5106383,82.55319149,1454,2.831325301,0.073809766,0.094214674,0.008309752,0.783421122,0.418578863,0.534296117,-2.362179335,389.9639311,517.8350949,0.75306586,634403.8248,1.327905105,6.509335903,2750.543464,0.574468085,0.579399142,0.82962963,0.203389831,50.56685705,51.45370724,49.77511614,48.06866953,0.446641464,0.553358536,260.6265602,290.0964802,0.513863165,0.486136835,371.2062022,361.0528229,0.489535792,0.510464208,320.7181383,327.5019914,0.86369756,0.810105085,1.929837797,1.861178696,1.88538928,4.76e-05,2.85e-05,3.17e-05,172673,182376.5,0.001825368,0.001233136,2e-06,1.51e-10,1.01e-10,0.8323525350418968,-1.0372695276405346,-0.9721617355690164,0.3801114878148786,-0.7632069106419808,-0.2767331532698825,0.8112213160735341,1.481572190131733,1.3442234411280958,-0.1590127305760644,1.420516570335677,1.765640450147377,1.523741649471924,-1.1196759072041336,1.2421068939048636,-0.0001072830247989,0.816717016261793,0.0133345582614016,0.4663085879699998,1.7656404501473713,1.5237416494719267,-1.1196759072041311,1.2421068939048732,0.080723108251921,-0.4533448478006114,-0.4416210820925086,-0.2846370469070342,-0.5033656809645705,-0.8881173263621769,1.462235594548288,1.993474514311461,-0.4786560964386148,1.754315735955956,1.00253952737439,0.6650766476764064,0.3664688447427365,0.7088745829980029,0.1476919621764354,1.414344949486685,-0.0783478958267598,0.3534456642266426,1.0778520563346967,0.7500062022711161,0.4536087027337436,0.59661082668648,-1.3795799376972693,0.8512533553745846,-2.485223295688502,-0.1619071585325653,1
45.51986411,563.0635374,1364.317757,481.1876933,565.61554,0.352694738,0.412707036,1648.0,274.281,0.166432646,728.5,63.55140187,78.5046729,1488,2.972222222,0.054631548,0.062415137,0.005413706,0.875293234,0.446116064,0.509676125,-2.773947445,399.9505839,547.4919305,0.730514116,687913.6552,1.368898941,6.54450404,2997.844495,0.560747664,0.575471698,0.852459016,0.09375,51.46043672,51.74130802,51.16153561,48.11320755,0.489581001,0.510418999,279.9064895,285.801238,0.529397292,0.470602708,398.3534478,375.582141,0.515538845,0.484461155,344.2623362,333.7246562,0.692286537,0.745515166,2.51295108,2.153538531,2.285731323,4.75e-05,4.07e-05,4.07e-05,73210,74529.0,0.008238425,0.004320318,5.2e-05,3.23e-10,2.77e-10,0.0423492270864759,-0.655895024634434,-0.9156562465377588,-0.5135832450919773,-1.0117197373482212,-0.5416340657809379,-0.0291053740931906,1.878612700225453,2.130258028273589,-0.6449587536806662,1.423119242118871,1.6892304148788966,1.9591199846541725,-0.5263157620486253,1.563119012176907,0.186780692762367,-0.7467501818778431,-0.9613229434503924,-2.204852422208492,1.6892304148788926,1.9591199846541707,-0.5263157620486233,1.5631190121768974,-0.3112114548487972,2.6598387893376354,2.7725903899202677,0.952824978579419,2.5023314732110715,-1.0118664881448909,0.7320606680912753,-0.676239818522215,-0.4997143957227475,-0.3265144103613407,1.4419975149688835,2.0976759472228963,0.264847735050057,1.0846314692711003,1.407635347931048,-1.784905615546334,-1.7279540388276218,-3.226266315167135,-0.649798578844724,2.1213725596832878,-1.3430097145274096,-0.3669168095302206,-0.9277044006605172,1.7255501866114102,-0.8450364653049965,0.6211920385613392,3
39.79610533,530.9552391,1547.202247,435.3710325,533.9925425,0.281392451,0.343171192,1756.0,128.9862,0.073454556,556.0,49.43820225,75.28089888,1486,1.893617021,0.039253951,0.084994658,0.005270654,0.461840219,0.303074233,0.656231789,-2.465166876,377.5897479,489.3049374,0.771685955,580429.7509,1.295863937,6.470719775,2536.290491,0.528089888,0.540229885,0.85106383,0.137931034,50.35664785,51.85413917,49.0165329,41.37931034,0.396816238,0.603183762,237.8588638,293.257713,0.633918933,0.366081067,389.5798263,296.0521588,0.545422322,0.454577678,322.7609643,294.6582486,0.539881208,0.580943182,2.198465628,2.081282416,2.142145901,4.98e-05,2.85e-05,2.85e-05,61108,66490.0,0.003047627,0.001955596,1.33e-05,3.54e-10,2.03e-10,-0.3526809571659891,0.1851288508590236,0.0746341521724646,-0.954981727087596,-0.3719608804929369,-0.7634444298568616,-0.4243825502645773,-0.2030311596170645,0.1631666182369343,-0.411619162099672,-0.2490973785831778,-0.5280841116215637,-0.1928404839235636,0.3476854293311645,-0.3066327114471073,1.021427234728171,0.648822351283443,-0.1514648003082811,-0.3781174021129095,-0.5280841116215672,-0.1928404839235642,0.3476854293311662,-0.3066327114471185,-0.3658447575840488,-0.2615751943381961,-0.7826685896959837,-1.589126346789994,-0.8512920396472814,-0.412855839672486,-0.3973405702668691,-0.9559824881032568,0.1946950397770457,-1.0097287533003996,-0.1136565814768002,0.1939023079758054,0.0329515524164958,-0.203917097187633,0.7887603565859219,-1.3260098684441533,0.3977347707137108,-0.0069720771649735,-1.2307442614552633,0.0283057968820955,-1.0934549596431822,-0.7715356639302949,2.394624203078094,0.3809399181656854,1.6452219729226836,1.322347840039915,3
35.09343539,158.4377529,1711.366667,192.9769152,158.8086131,0.112761876,0.092579665,1716.0,178.6533,0.104110315,240.75,66.66666667,85.71428571,979,5.25,0.040508484,0.007841147,5.11e-05,5.166142398,0.836938647,0.162004564,-4.848370105,112.2946473,248.2934275,0.452265887,87593.95817,2.211088716,5.649444262,2195.995183,0.461904762,0.45320197,0.695652174,0.113207547,49.18393957,49.11458652,49.26202212,58.12807882,0.625355313,0.374644687,88.80728108,68.73769121,0.355246097,0.644753903,147.9891517,199.371104,0.401118086,0.598881914,122.039998,149.1202657,0.971981006,1.566530411,8.783985232,6.976835063,7.769102712,3.03e-05,3.03e-05,3.03e-05,109566,112015.0,0.112629399,0.068236923,0.006701456,8.32e-11,8.32e-11,1.7248580627466306,-1.5206878352291906,-0.986035025768624,0.3302965468210049,-0.7654671933147222,-0.1624536143483947,1.7538071037487712,0.8087195927845723,1.2795624319441834,1.1305568622706643,2.1302934634060766,0.9061010127466128,1.105051606343848,-0.3207610548879095,1.7775058602254454,1.4871568495530814,-0.5001019722915381,-1.251621136594306,0.3970782224235697,0.9061010127466126,1.1050516063438458,-0.3207610548879096,1.7775058602254317,-0.5565863738684483,-0.4170935012591084,-0.6978920282318863,-0.7107171982817108,-0.4005181128970126,-0.3757440458846333,1.6311921220019097,1.3610014768153764,-0.0331094819017442,1.8142601569025265,1.2600662471651198,0.9989475720210456,-0.2216756419961419,1.7087777383773022,1.1140327809322346,0.6492386213358857,-1.531160035330436,0.7101626595886293,0.7218836326388888,1.1382501100802884,-0.4926637476121919,0.4591982792528576,1.547826556197001,0.317738575526925,0.2498972582206161,0.8000820193451218,1
32.05666502,131.1030507,1872.04902,154.0461148,131.6714182,0.082287437,0.070031847,1848.0,114.1602,0.061775,177.0,70.58823529,86.2745098,855,3.517241379,0.009053625,0.003897774,3.37e-06,2.322767761,0.69886448,0.300875745,-5.547349554,93.10575271,195.0654544,0.477305185,57056.71343,2.095095616,5.463276862,1634.723113,0.607843137,0.616161616,0.93442623,0.03030303,47.70164788,47.59708338,47.80982455,50.50505051,0.491144817,0.508855183,65.29249574,66.45927324,0.461990405,0.538009595,132.5857475,143.078828,0.467405687,0.532594313,104.5038048,111.5535433,0.60518514,1.893542164,6.380413765,5.97805542,6.178072304,2.07e-05,5.18e-06,5.18e-06,87475,79747.0,0.002364282,0.000729855,1.11e-05,1.07e-10,2.69e-11,1.0465048232923655,-0.7497125425854541,-0.7254814414958815,-0.9536899148292866,-0.9094161245675982,-1.0071931094513624,0.9574610915644688,-0.3256103980274429,-0.8207717724154482,-0.9967396539657476,-0.7981151909229409,-0.0839954513992601,-0.8154178509724047,-1.4514461908641236,-1.2357313230580498,-1.0454278358295477,-0.6294435026176121,0.5548584597786913,0.4533940711440866,-0.0839954513992533,-0.8154178509724094,-1.451446190864124,-1.2357313230580516,-0.5783786958237027,-0.7249056741399176,0.0,0.0,-0.441626172952016,-0.7657091158067938,0.8821534456616557,0.3134486430999457,-1.9580319873983136,-0.474149852900898,0.2337729331596537,-0.6838909388063896,-1.6074855268811985,-1.311514558994339,-0.8758746999617493,-0.4278296133591786,1.3779934767988704,-2.025307499142204,-0.4457756236561754,-0.4126301419230424,-0.1214772995535055,-0.947753512399914,-0.0927146443232503,-0.2801632230074393,-0.2589768101319469,-0.3371169323944148,0
36.98325434,84.27565701,1623.337079,130.0886013,84.68357724,0.08013653,0.051915069,1644.0,108.2298,0.065833212,142.0,50.56179775,80.8988764,565,4.238095238,0.012280498,0.002367533,7.51e-06,5.187044453,0.837942503,0.161545271,-6.045906843,59.88033172,171.9452197,0.348252379,32346.26771,2.871480747,5.216794287,1974.949551,0.471910112,0.488636364,0.674418605,0.074074074,52.65035678,52.88945118,52.42694161,45.45454545,0.569006896,0.430993104,45.20928345,39.34631093,0.503856919,0.496143081,122.0516681,121.1137848,0.510914803,0.489085197,92.03393125,90.04632435,0.687802295,1.619909212,7.42329411,6.219347528,6.596207527,1.37e-05,1.37e-05,6.85e-06,17269,17269.0,0.069997225,0.069997225,0.002562557,9.39e-11,4.69e-11,-0.7347102367545641,0.8729647559017324,1.955669985371327,1.3832124066508673,1.721427833126827,-1.0100880357539772,-0.8383486723239708,-0.9307037042106364,-0.9625770927049532,-0.0001410793007774,-0.96012177424141,-0.7411134043355984,-0.5612830402682984,0.95929196745521,-0.4514947088076234,-0.6704075422747313,0.785146128745244,0.5671717719803363,0.5144178474879095,-0.7411134043355975,-0.5612830402683063,0.9592919674552102,-0.4514947088076294,-0.5031951850780754,-0.5910742946265223,0.0,0.0,-0.4244978145957646,0.6052364699492907,-1.1577560657580404,-0.4875417005464315,0.4967980080270187,-1.1553869169093347,-1.1435678189907728,-0.8615165778913706,1.270482248667086,-0.445819138754765,-0.5396100304674679,0.189814466644043,1.5302633958962504,0.4607584558311554,0.4133821456977474,-0.9110926874180816,2.2976121007693657,-0.0294829551646423,0.126962906345389,-1.2914315828972294,1.4411222240044708,-1.4715045525312167,0
40.84376215,60.56447121,1469.006849,138.8979033,60.76354208,0.09455225,0.041228175,1483.0,163.086,0.10997033,207.0,43.15068493,72.60273973,572,5.034482759,0.002702303,0.000864038,7.77e-06,3.127527589,0.756076398,0.241748914,-7.053893534,42.96631265,191.5969923,0.224253586,25862.27018,4.459237493,5.119636754,3417.505967,0.5,0.503496503,0.75,0.073170732,51.17297908,51.0933063,51.2498223,48.95104895,0.491514812,0.508485188,30.12825593,30.64395672,0.509204719,0.490795281,136.7208964,134.2266887,0.508357408,0.491642592,98.99574568,97.35465072,0.795560658,1.264597426,12.14278252,6.310845744,10.08158571,5.99e-05,3.69e-05,3.69e-05,98928,95422.5,0.097327982,0.089485414,0.002720472,2.76e-10,1.7e-10,-1.2992203635822297,1.6984334500336054,1.182960509222145,1.2447581961953436,1.4645082738136102,-0.9880865958541056,-1.2287701548384848,-1.438617279010015,-1.6508415354338226,1.7733024536258073,-1.196986571920827,-1.310666231698006,-1.7186389904777766,0.2745908772394863,-2.0411307576964366,-0.3820127242516422,2.065074882960524,0.7304443264300252,0.5127062949900013,-1.310666231698005,-1.7186389904777766,0.2745908772394864,-2.041130757696439,1.757767222871271,1.4652963252042996,0.0509565317385669,0.573634807426293,0.4421971182305578,0.3002275626361742,-0.9833836193587088,-1.430810577576363,-0.5893660628040449,-1.3733174936785686,-1.572521316337053,-1.7802243414633765,0.520962864361869,-1.918808378960789,-0.1770959437706916,-0.0016732609237006,0.2266387733829961,-0.0312445498123445,-1.911333705641176,-1.7407531410799233,-1.672403475643957,-2.181408323424328,0.3603809580647118,-1.4729397303388585,1.4247239058695658,-1.5804732252212492,3
33.78109207,126.0587832,1776.852217,195.698009,126.3423845,0.110137471,0.070945002,1748.0,160.1208,0.091602288,215.0,65.51724138,85.22167488,1010,4.720930233,0.011667456,0.001251615,3.06e-06,9.321919598,0.902905216,0.096858293,-6.683320414,89.33755686,259.6872555,0.344019797,72884.39965,2.906809461,5.569604691,3019.445485,0.487684729,0.487437186,0.731958763,0.029411765,48.52713178,48.66818815,48.36844533,49.24623116,0.560290908,0.439709092,66.88712925,59.25411168,0.418385734,0.581614266,167.972842,198.0469516,0.433409173,0.566590827,127.8451479,146.1739457,0.925121238,1.320167277,7.235249936,6.516076586,6.837263047,1.38e-05,1.1e-05,1.1e-05,212209,211787.0,0.030506429,0.015768827,0.001056668,3.8e-11,3.04e-11,0.8113041229319015,-0.772968911295175,-0.7775593094535854,-0.5258125227350958,-0.5393718162826354,0.5276968161949485,0.7834814121707402,0.123020020030748,0.1392683660573663,-0.6700719307687288,-0.257348388673706,0.0551685653319233,0.1578613980613648,-0.328481330995976,0.2254537787991354,0.9625365141481816,-0.4742560717722555,-0.610694691084462,0.5364558210220778,0.0551685653319186,0.1578613980613696,-0.3284813309959761,0.2254537787991495,-0.6900643458443807,-0.5107754669184851,0.0,0.0,-0.4142207995820137,-0.2242412635164595,-0.286507253065191,-0.8703227114212595,-0.4633983364463707,-0.8950035801858253,0.097332828361651,-0.0303227732354797,-0.8901873170517413,-0.4105377407384441,0.3101189612916812,1.0179656063804146,-0.0754983901419568,1.0544364791277214,0.593935032248256,-0.043972232947215,-0.1079983089254116,-0.4664315153070108,-0.5955627653531753,0.4499610293585114,-0.1478758115603416,0.7320987300861679,1
36.02151531,130.7686096,1665.946602,167.0650875,131.0633,0.100282378,0.078495079,1683.5,146.0361,0.08674553,212.75,57.2815534,75.72815534,1141,3.961538462,0.045373746,0.003291157,1.28e-05,13.78656325,0.932125567,0.067611162,-5.716516056,92.67574822,216.2540862,0.428550276,62962.25821,2.333448506,5.506050406,2018.471097,0.446601942,0.442211055,0.647727273,0.054545455,48.56224812,48.37655148,48.72758217,55.27638191,0.595777085,0.404222915,71.54713584,58.9333081,0.385310941,0.614689059,134.2363061,169.547763,0.417977463,0.582022537,107.5601658,126.924345,0.871701052,1.309151485,8.039645494,7.436265874,7.667667305,3.76e-05,2.32e-05,2.32e-05,192271,198624.5,0.047913411,0.040782627,0.001548372,1.09e-10,6.7e-11,-0.2787503991726154,-0.0709850512139995,-0.2062272207200064,0.9657700649784932,0.3352643559444214,0.1750947925364787,-0.2948373381045152,0.4561261682054771,0.6148955969353411,0.175025835982314,0.8308889365138038,0.1579688418966704,0.2944389874683126,0.1120733328783757,0.5447044501102133,0.6685281921422879,-1.2880907303434326,-0.7229896548338147,0.480373478764775,0.157968841896668,0.2944389874683094,0.1120733328783757,0.5447044501102197,-0.6838560680780583,-0.6111490015535316,0.0,0.0,-0.4270670683492023,-0.7382056443991878,-0.3008280167005066,0.1477199416392139,0.7773146378818215,0.3681370711177497,0.7196642557799829,0.9901637463664988,-0.3992955550641552,1.129644993065177,1.8728808924436344,0.3546618233302349,-1.302448963629363,0.8092998342658061,0.3979322519189807,0.9506022185526708,-0.5463532356714206,0.8596843717012269,0.2954464235984086,0.6627248897696024,-0.4915625623800454,0.34985724551037,2
35.95258514,97.79858754,1669.565854,166.3218054,98.03531651,0.099619793,0.058577257,1692.0,145.2948,0.085871631,219.0,53.17073171,75.6097561,913,4.659090909,0.017960452,0.002439702,9.02e-06,7.361741275,0.880018386,0.119539434,-6.015879536,69.3214371,224.7061555,0.308498167,48936.44307,3.241510345,5.39660251,2913.54931,0.43902439,0.437810945,0.727272727,0.0,50.60812204,50.50343354,50.70305339,54.72636816,0.605223735,0.394776265,53.9315156,43.5572213,0.407004635,0.592995365,143.3555948,173.0376541,0.424231248,0.575768752,108.3038202,126.1730187,0.937749922,1.432556079,10.9376391,7.880493067,8.740084992,4.36e-05,4.07e-05,3.78e-05,139522,126427.0,0.179700774,0.191133738,0.013172642,1.27e-10,1.1e-10,0.8936936029151925,-0.5390402139678376,-0.6749602177218198,-1.1276852077622492,-0.8126281922048508,1.9189983972315705,1.0057481346258057,-0.7589008226879521,-0.4765024044962153,0.7324230742682584,-0.0417120398429161,-0.8848996238100556,-0.7385243629496829,1.5400564406933757,-0.1080077890742556,0.6400717414759213,0.2156690243796692,-0.4017800405160114,0.4835967630756395,-0.8848996238100553,-0.7385243629496786,1.540056440693376,-0.1080077890742558,-0.6854616571555555,-0.484009191015806,0.0,0.0,-0.4107951279107635,1.7994963337204792,-0.5585655744962449,-0.7670363830611472,0.3086180057547591,0.1088566186363481,-1.0418781228097875,-0.8427765020336455,1.7218506616172822,-0.1082072596746622,-0.2667784570402006,-0.0403153665979442,0.6039070965535726,0.7095733054854741,-0.7211163446996792,-0.9279018240189691,-0.638973820078853,0.1228334492238809,0.322947907691578,-0.4813721258877605,-0.0065436585864501,0.0671176300071109,2
35.89393246,99.48456717,1671.688889,149.9774345,99.84248396,0.089716116,0.059511413,1704.0,121.5732,0.071345775,181.5,63.7037037,86.66666667,737,4.35483871,0.025219608,0.003288291,1.45e-05,7.669519282,0.884205123,0.115288207,-5.717387435,70.59929746,199.8548539,0.353252854,44326.65428,2.830833466,5.353635063,2263.023235,0.444444444,0.45112782,0.75,0.024390244,51.08958838,50.99425176,51.18061332,51.87969925,0.556745402,0.443254598,52.686047,47.01039719,0.375066929,0.624933071,122.3965248,157.9906749,0.395228451,0.604771549,94.22507316,116.5569191,0.77815659,1.642227735,9.546814847,7.239407027,7.874267949,3.5e-05,3.93e-05,3.5e-05,87011,73292.0,0.159830633,0.118984523,0.033054342,1.53e-10,1.53e-10,-0.2331036968562913,0.4313210522220977,-0.2470240289716983,-0.819444745657885,-0.4866624645819036,-0.6980149803321132,-0.2848328344681282,-1.0540677421224536,-1.038278214708304,0.2056405269049248,-0.8975537144770357,-0.8053351286618954,-0.7671047673940794,1.126323120545835,-0.4530607029681868,-2.174301383019789,1.338120412282126,2.587913841643412,0.4063115668750365,-0.8053351286618935,-0.7671047673940786,1.1263231205458353,-0.4530607029682065,-0.6164213268231767,-0.684756260285899,0.0,0.0,-0.4364876654451406,1.9954051040241512,-1.0364267601546258,-1.279737226249238,0.7219193706771371,-0.5933867777206803,-1.252902374054526,-1.0672441466737284,1.288768603104803,-0.4996429158329817,-0.6209542345826138,-2.2975191226514875,-1.1284741715079836,-1.0392882405790782,-0.4185032101738607,-1.1336478149036875,0.7871325099946872,-0.0793474724992913,0.2024276504931063,-0.8556643738822389,-1.721509166391458,-0.915862362217174,2
35.21014657,114.7047731,1704.649425,184.5815078,115.0288221,0.108281213,0.067289362,1709.0,194.9619,0.11407952,266.5,60.34482759,82.75862069,919,4.971428571,0.016910902,0.001751102,3.77e-06,9.657292423,0.905984297,0.093813489,-6.347510077,81.33766017,248.4010779,0.327444876,63473.87668,3.053949147,5.509565134,3034.41704,0.482758621,0.485380117,0.710843373,0.081632653,49.18926016,49.13046354,49.25818516,52.63157895,0.55827208,0.44172792,60.77826168,54.0633242,0.416876183,0.583123817,160.3825145,189.6853831,0.430570488,0.569429512,121.2776732,139.4693292,0.848014371,1.540445041,10.68793819,6.668558144,8.096884518,3.35e-05,3.35e-05,3.35e-05,167912,175106.0,0.124608391,0.119787893,0.00517908,1.12e-10,1.12e-10,-1.3546052178209014,1.1602153361946832,0.5406959329631519,-0.080812634264871,0.4887687837044476,2.0585338450175987,-1.3660149046031125,0.3736869991149719,0.0602739702540877,-0.9729360351832402,-0.366842493261361,0.3259356304362156,0.1752478209530716,-1.1566837575755136,-0.1914367434266899,0.5928754929629915,0.0578559150585262,-0.4485022349824488,-1.390224152466048,0.3259356304362151,0.1752478209530691,-1.1566837575755138,-0.1914367434266873,-0.3462038749924755,-0.1248949893215264,-0.6160165330592439,-0.9633202838167242,-0.3345739332254446,-1.1923289929038197,-0.151796891082799,1.034649647861151,0.1438366786204648,-0.1141249447014675,0.6962386517723422,0.5456703911923183,-1.0352792322359792,0.0357045952637162,0.9309731027255648,-0.1697029063611985,0.0437244972442407,-0.1731479815102606,-0.3563695693498356,0.3076065768255036,0.3685533397039356,0.486720738572591,-1.0161285040520525,2.391687655873276,-0.2916431820712535,1.987148973931236,0
35.11652113,151.2639059,1709.63388,196.2776749,151.681154,0.114806847,0.088477368,1711.0,186.8076,0.109180362,251.5,66.66666667,81.96721311,964,4.815789474,0.025494788,0.002892599,5.58e-06,8.813800124,0.897926208,0.101877305,-5.845599913,107.2547726,256.4398703,0.418245308,86407.62089,2.390941346,5.643522158,2452.530754,0.393442623,0.394444444,0.605633803,0.019230769,49.95354119,49.84145388,50.06448687,55.0,0.646719737,0.353280263,86.25311268,63.7494448,0.36830501,0.63169499,155.6285825,203.8164649,0.409756757,0.590243243,125.8170401,151.0052037,0.917163629,1.526056303,7.425374256,6.192187272,6.554662631,6.34e-06,6.34e-06,3.17e-06,18009,18009.0,0.042732478,0.042732478,0.002114267,2.01e-11,1.01e-11,0.1766612999550177,-1.11211001981204,-0.9097854705932288,-1.0110413520593673,-0.985397733890583,-0.2741977696293219,0.1493688373284853,2.4876178799454096,1.7363553306512765,-1.2254627313547826,1.048759858907607,2.589579297053355,1.981665087948961,-1.6747020263557904,1.2242946536498218,-0.5719292078055722,0.1374625862405135,0.471369798679699,0.5135360779987574,2.5895792970533567,1.9816650879489628,-1.6747020263557897,1.2242946536498251,-0.3758522254786766,-0.5375417428211642,-0.6554491388229626,-0.7623735892753827,-0.3988052770613874,-1.0863250305788386,2.1365766292412127,1.4837135081851518,-1.1935791153237527,1.174191259837596,1.6884853225385652,1.188616201474632,-0.7047286464775199,0.5122255554491203,-0.4173348169164987,1.3910935100253918,-0.2825710583481091,0.9616993850109248,1.2161001518824452,1.3853315778935027,0.4228293962652824,0.9837792370816758,-2.5556683081312004,0.6534515810326195,-1.499596046371687,0.0058365105267769,1
37.70551509,103.4842983,1591.901099,148.7030639,104.0640372,0.09341225,0.065006738,1589.0,174.9468,0.110098678,231.0,64.83516484,82.41758242,609,5.055555556,0.0207067,0.002891031,1.98e-05,7.162393197,0.876752074,0.122410492,-5.846142149,73.5843864,198.2549992,0.371160307,45831.03792,2.694253616,5.368129803,2136.596994,0.417582418,0.433333333,0.58974359,0.04,50.02704164,50.01395533,50.03753414,53.33333333,0.530133533,0.469866467,53.5769949,50.43975158,0.496626435,0.503373565,139.7137223,140.6595908,0.500683475,0.499316525,105.8074161,105.6628814,0.581287385,1.840549633,9.562047314,7.347957402,8.458958027,5.43e-05,3.4e-05,4.07e-05,72755,72677.0,0.079429607,0.080564179,0.000897472,3.69e-10,2.77e-10,-1.3671706566263009,1.205480856817965,1.5715342558318866,1.5543852236542706,1.4379994770518385,-0.1584007175247341,-1.295787926925043,0.257020521217234,-0.0282465368542107,-1.313848196024923,-0.6238184530078983,0.4484749852300361,1.2335682088413134,-0.0240900285038241,0.8985561288289867,0.8746650565856842,-0.0563410741394862,-0.7772850994529076,-0.0812113087203525,0.4484749852300341,1.2335682088413114,-0.0240900285038241,0.8985561288289825,2.1797120516381647,2.60414989125579,2.155262598634584,1.911606732127596,3.206714156929539,0.2586738552820933,-0.3012922957039759,1.0735260412240415,2.137460855118773,1.5499481190639126,0.0909202683802157,1.4391300863871133,0.4367735737704604,1.225981677852481,0.6918061381479287,0.8358117172605828,-0.6791065908022662,0.2414405959911745,1.7572548273519613,1.261884072169797,0.8443529626517671,1.744245880325044,1.0974562071510643,-0.3832014982308263,-0.1722052597683817,-0.5489034472622771,3
34.43992074,142.1414969,1743.050633,164.7267278,142.8332944,0.094504844,0.081547543,1760.0,161.6034,0.091820114,196.0,74.6835443,87.34177215,758,4.157894737,0.04216544,0.008201524,2.02e-05,5.141171354,0.836829622,0.162770226,-4.803435298,100.998391,205.3873658,0.49174588,65168.54922,2.033570671,5.521008163,1670.678893,0.582278481,0.586666667,0.840909091,0.142857143,53.66424725,53.58874896,53.74404547,46.66666667,0.585993776,0.414006224,77.43803556,65.08954871,0.510400934,0.489599066,146.7335603,143.7123248,0.525158745,0.474841255,117.3187689,111.556895,0.598091697,2.772588722,7.14241871,5.938823718,6.321233281,3.56e-05,2.13e-05,2.13e-05,72886,70608.5,0.031099504,0.012985382,0.001517209,2.53e-10,1.52e-10,0.6145386589718059,-0.6029108770663901,-0.7237879686636656,-0.9599360609912256,-0.94902519879885,-0.3818890280865885,0.6587252518249932,0.0017087647600893,1.146861860770695,1.1622508735462322,1.1325563675206085,-0.6572184927899984,-0.3468640975546298,0.9438286503708476,-0.1896528465823531,-0.3817551536868633,-1.651095598502294,-0.6988853410482143,-2.826434682595509,-0.6572184927900021,-0.3468640975546249,0.9438286503708476,-0.189652846582341,1.0985404786331128,0.6167539054818701,-0.2368614302590579,-0.0488304681800712,0.0396806968586491,-0.5764852325224629,0.126634279415318,-0.57861065997044,-0.3484625722057459,-0.4100236594613632,0.224389125034615,0.103447282662378,-0.3801860318147587,0.0821954329481825,-2.0221636928018234,-1.5015454750830848,1.2167319698841856,-1.6783824442557664,-1.247389588217554,0.1263232867691526,-1.1406104218996984,-0.9520381773620932,0.3066256123184197,0.2892088026834222,1.474169109166912,0.9117194102195456,3
35.21824617,73.40161558,1703.422535,77.82685099,73.5654681,0.045688518,0.043090668,1702.0,77.0952,0.045296827,106.0,50.70422535,79.81220657,475,5.461538462,0.015284995,0.011596817,5.26e-05,1.318033647,0.567490207,0.430558209,-4.457024646,52.01864135,95.7433996,0.54331308,15646.51863,1.840559405,4.901387832,704.8856586,0.61971831,0.622009569,0.946153846,0.042857143,48.98187335,48.91227838,49.04610433,45.45454545,0.429560861,0.570439139,34.09806043,39.29361464,0.542351794,0.457648206,70.50978404,64.77012369,0.516640059,0.483359941,55.3818895,53.56844721,0.929800583,1.908059925,8.315205597,6.050964139,6.89773134,2.75e-06,2.75e-06,2.75e-06,0,0.0,0.052250821,0.052250821,0.0,7.57e-12,7.57e-12,1.0546642723387218,-0.7492050130176858,-0.6550550087604414,2.2938125049631544,-0.0556336918497646,-0.673151043654785,1.0704842953409737,-0.9721090413540496,-0.5413610707384734,2.56772455113449,0.1949072698005526,-0.8801428274223424,-0.8152817918160709,2.3053780428100024,-0.0536952434178593,-0.775221294229805,-0.489442062694352,0.4716399668385942,0.6882552681751162,-0.8801428274223292,-0.8152817918160709,2.305378042809997,-0.0536952434178602,-0.683357484442267,-0.258589266084673,-0.142709632882746,0.1703294418866545,-0.3372943033615231,1.2229142901469976,-1.100594372077662,-0.2103730775295084,0.1578725301078316,0.3416005118923398,-0.4575994221635954,0.08666251123687,0.9100849413942836,0.4547838473247866,-0.450543895088399,-0.5434911847520421,0.205942348650203,-0.2210682800909756,0.4098333785660107,-0.1614452761938744,1.1835461640793208,0.7082330527978188,-0.864945052133546,1.1674187587280307,-2.831625272270697,0.405631698127664,1
38.08685843,67.881764,1574.065574,71.1041301,68.1309022,0.04517228,0.043125118,1582.0,63.0105,0.039829646,81.25,42.62295082,83.60655738,512,4.88,0.022460941,0.024408625,0.000203106,0.920205072,0.477154574,0.518530693,-3.712818722,48.17582295,82.05613882,0.58710809,12419.09908,1.703263874,4.801060202,559.0530274,0.598360656,0.608333333,0.931506849,0.024390244,47.98742138,47.69641557,48.23679445,47.5,0.344153096,0.655846904,28.27587311,39.03385283,0.515692942,0.484307058,58.92596059,57.1046503,0.471689068,0.528310932,46.2157648,48.91105577,0.764463128,1.743968805,9.634377285,7.084552984,8.030846587,3.11e-05,2.07e-05,2.07e-05,74179,50521.0,0.076351522,0.026744549,0.011007616,1.61e-10,1.07e-10,0.5117433216738018,-0.678897175211852,-0.6732902549999249,0.4855902289454887,-0.6514561142334775,1.4659330409433735,0.4888275398675463,-0.0696564203943076,-0.2401230619533134,-0.3387280871949797,-0.1293134770792128,-0.3450777812272968,-0.5114866577304008,-0.1307102055065176,-0.3961438603888586,-0.6051115188381996,1.0384040059401654,0.4851565068332015,0.8102906798444615,-0.3450777812273103,-0.5114866577303965,-0.1307102055065172,-0.3961438603888612,-0.7946380730524525,-0.833924054741307,-0.7141174358253833,-0.9377822416963634,-0.6452980539691807,0.9609385354073188,1.0715436395139732,1.48725971449285,-0.5967367460509083,1.251824757771435,-0.3517788987358506,-0.5729508372435372,-0.3832379263909936,-0.5514766885226199,-0.6280078685076371,1.0564763977486675,0.6973217622363999,1.3422942923198624,-0.285955077858297,-0.4205302428299389,-0.0688009621615806,-0.3559873026551662,-0.5789542078286443,-1.502829791694939,0.3537675233887024,-1.4344035867403546,0
35.46741611,73.91500911,1692.294118,88.05758715,74.35672496,0.052034446,0.043677401,1680.0,80.0604,0.047655,126.0,50.58823529,82.35294118,466,3.863636364,0.026750891,0.009458608,3.36e-05,2.828205974,0.738096527,0.260976935,-4.660830095,52.57814445,113.6113596,0.462789501,18766.22352,2.160809605,4.980346995,981.9700681,0.623529412,0.638554217,0.943396226,0.086956522,49.52774498,49.52456461,49.53151991,51.80722892,0.467221438,0.532778562,35.94012759,38.37881883,0.438979318,0.561020682,75.27379062,85.09640103,0.443961329,0.556038671,58.98235467,66.00882972,0.654661612,1.878770846,8.204040983,7.265675753,7.740370543,3.43e-05,2.06e-05,2.06e-05,47775,51324.5,0.0225722,0.024887115,0.000263325,2.35e-10,1.41e-10,1.220933813479854,-0.7805409884190224,-0.9803658383083572,0.1440556553531434,-1.121390654645183,-0.9771426244217928,1.17210925196988,0.7792667631621195,0.3446617865773234,-0.2030342797699827,0.2754939294296273,1.25206183627232,1.0125958615951811,0.5281904373771481,0.986462982710441,0.4850664201717897,-0.0831005284774256,-0.5213541689196357,0.6995594600730812,1.2520618362723273,1.0125958615951758,0.5281904373771499,0.986462982710447,-0.6311155793701799,-0.8144991573899502,-0.7844420530490944,-0.668069498639268,-0.6407685870484798,0.3606127430999513,0.4971275530405177,1.6584811317187913,1.0681786619734106,1.4815172135584396,1.2620359171078557,1.267364695020707,-0.0602195824284431,0.46375554375147,-0.2852045070046861,0.1371149440043012,0.300002810799936,1.0612034519490086,-0.2292552661409429,1.2965116514349626,0.0436227416633159,0.7308231233338391,-0.7051115310212455,0.8722135359592262,-0.6742893215749766,0.540585970746409,0
32.60451236,102.5988813,1840.646552,83.48113604,103.0461317,0.045354246,0.055740675,1843.0,91.1799,0.04947363,119.75,63.79310345,87.93103448,472,4.0,0.051136853,0.042288932,3.56e-05,1.209225469,0.547144176,0.452474902,-3.163229887,72.86461852,93.11776948,0.782499612,21315.6771,1.277955905,5.035669243,476.0016134,0.594827586,0.608695652,0.928571429,0.026315789,50.35896369,50.35816733,50.35918633,45.2173913,0.448820413,0.551179587,48.8158013,54.09668894,0.656255161,0.343744839,75.43431142,54.59472185,0.577475953,0.422524047,63.53470624,54.3462759,0.602621859,1.734601055,9.087810986,6.26067175,7.337357583,4.15e-05,3.69e-05,3.69e-05,98044,105043.0,0.084612865,0.053463062,0.003841224,1.91e-10,1.7e-10,1.4462908775058507,-0.8033619409650602,-0.8686150869515726,1.2877467867465204,-0.7878463744407659,-0.9489720701909128,1.4396478305030802,1.0058996704065828,1.899518289604532,1.1489134960663776,2.5206757488629163,0.9453361684230266,1.6675475023323023,1.4932816624909442,2.450518763471212,-0.7395470611369925,-0.4230800418438202,0.4014801623390329,0.6724395277487485,0.9453361684230244,1.6675475023323092,1.4932816624909475,2.450518763471204,-0.7502789330883289,-0.27392471136206,-0.332749943415126,-0.6314545050310759,-0.508055206271945,1.2967024144758197,-1.3209922388313695,-1.0199584440945684,1.1721107547351983,-0.531820078475458,0.3913533748087937,1.5334449321977357,1.3171077172963712,1.9716766693693168,-0.1622646155897408,-0.4326634973692079,0.2615075270148163,0.911658376207245,1.3585015846083852,1.4101300650112174,1.069424391946088,2.341640794779079,-0.3609540925894347,-0.0710431231788249,0.0234151642105384,0.3362952220670464,3
35.07528889,77.77311324,1711.028436,86.72287086,77.95677626,0.050684646,0.045454016,1717.0,83.0256,0.048355038,105.5,54.50236967,76.77725118,486,5.702702703,0.019851888,0.014186632,4.4e-05,1.399337668,0.582466123,0.416244154,-4.255455198,55.12376514,109.622759,0.502849642,18984.07646,1.988666026,4.985359584,872.0122258,0.616113744,0.622009569,0.946153846,0.045454545,50.46142209,50.45047235,50.47180715,44.49760766,0.474549251,0.525450749,37.97446258,39.95921964,0.551070444,0.448929556,81.37748945,73.44966639,0.535625882,0.464374118,63.49943149,59.12525995,0.922333676,1.786368621,7.759171277,5.531713879,6.336071576,1.65e-05,8.27e-06,8.27e-06,223558,221004.0,0.009636133,0.004143314,0.000107882,4.56e-11,2.28e-11,-1.2546349101769978,2.718101748126478,1.9722214612566005,-1.2033557219027171,1.9729194185416203,0.0790653555413366,-1.2391738098614522,-0.2704240601732666,-0.2159851097247794,-1.1531307052686413,-0.7946219461099453,0.2550164026640331,0.511378885231955,-0.937922521679732,-0.4788337204049002,1.5699276526251156,-1.695804874565458,0.5026419434322312,-1.6910381144794282,0.2550164026640382,0.5113788852319522,-0.937922521679733,-0.4788337204049008,2.3858544385428475,1.0680520399949005,0.9386765468333268,1.909879248246425,1.5107282002844225,-0.987802140667668,-0.9411376463602884,-1.331182402438082,-0.1088453879419059,-1.6932725855793649,-1.1884502294119663,-0.73375951788927,0.5307498075984672,-0.5907652182227189,-0.3517217668143147,-0.6853933209663288,-0.1792741507961447,-0.3643896229070858,0.2861111330494129,-0.7865182043999597,0.8032241975079859,-0.4083738302708667,-0.0743608124435647,-1.058322876076207,0.6971054754155899,-1.136376653887376,1
34.89614881,77.25751496,1719.57,103.0166357,77.44457731,0.05990837,0.044928392,1708.0,90.4386,0.05295,122.5,47.5,80.0,608,4.87804878,0.017167739,0.006812976,2.2e-05,2.519859078,0.715241144,0.283841724,-4.988926259,54.76158578,134.6728298,0.406626829,23168.9245,2.459257303,5.071875984,1324.780561,0.59,0.593908629,0.923076923,0.048387097,49.09723373,49.13179168,49.06263161,50.76142132,0.508390471,0.491609529,39.04976105,38.39987637,0.423235181,0.576764819,87.61346693,102.2773264,0.43531955,0.56468045,67.82699841,77.25024917,0.978247735,1.799664649,10.42301757,5.586597164,6.945498813,2.89e-05,3.76e-05,3.76e-05,213931,219818.0,0.160755545,0.129741591,0.016282071,8.37e-11,1.09e-10,-1.0043713243508756,0.5477639394061025,0.7091586892345298,-0.5992527483516297,0.726605944210187,2.2083836480061234,-0.9910198460001683,1.2813908433927783,0.8976632719381418,-0.4831139102273777,0.3617029141491025,0.9292578679549102,0.5563087605813484,-0.5438034429713333,0.0242086796059713,-1.9621067647653017,0.192434698748323,2.2374153965509094,-2.1466712169231137,0.9292578679549028,0.5563087605813494,-0.5438034429713338,0.0242086796059692,-0.8591423830496531,-1.0997384395493477,-0.9587483483896488,-1.1863796362267072,-0.7032752305541515,-1.011661858024527,0.1226466620855859,-0.3580514212397073,-0.6493677027337288,-0.9236562061027486,1.554079056432515,0.3433266477318116,-0.9720192912886058,-0.3970226606900927,-0.7340698319105401,1.865963250913552,1.2740392264587577,-1.234007525120721,-1.2463287500328806,0.5519992745011133,0.1109353205394552,-0.2739528390595632,0.154868509371152,1.2840414053885758,0.8953790002067878,1.867732501902722,2
34.49202155,80.11429972,1739.878173,106.1530248,80.31828153,0.061011757,0.046045925,1745.0,80.0604,0.045879885,111.0,48.73096447,80.20304569,676,4.925,0.018422108,0.006173509,1.66e-05,2.984058038,0.748493666,0.2508308,-5.087487927,56.79360152,139.2377193,0.407889484,24843.12266,2.451644474,5.102176294,1365.44554,0.61928934,0.621761658,0.933333333,0.070175439,49.63709333,49.61027281,49.66278063,46.63212435,0.512627714,0.487372286,40.66369262,39.64936059,0.594347376,0.405652624,107.3438273,88.6817074,0.582690431,0.417309569,81.16721366,68.6895808,0.943346072,1.452252329,8.464736181,5.969472144,6.74019407,2.33e-05,1.45e-05,1.75e-05,163380,97471.0,0.05133163,0.029426495,0.00325769,6.77e-11,5.08e-11,-1.0571500145687571,0.7887628411808237,0.6435408482272701,-1.082921835522343,0.3914206674065072,0.2882786716293392,-1.043251087833936,-1.3778374720754163,-1.33496922587487,-0.6526551552009147,-1.2631490369766585,-1.458973190914759,-1.4023697662848589,-0.5418959056115227,-1.162054195266354,-0.2103263400889776,-0.4631942766003558,-0.0750683244807816,0.0532923358972415,-1.4589731909147627,-1.402369766284859,-0.5418959056115231,-1.162054195266355,-0.4210220559552781,-0.8047702189881651,-0.7650131074410047,-0.2548833591094391,-0.6013622248383825,-1.0054912414667183,-0.2752265298422578,-1.0658555236015437,-0.4274498621825563,-0.8631720341926807,-1.1872107148412585,-1.3208574731490137,-1.132323760609125,-1.1447577967110705,-0.8346865917526048,-0.739523544938273,0.6737764164093533,0.2098759482675989,0.7077597336710677,-1.197109669400623,-0.2039217726760812,-0.9888293111916898,-0.5948305746291298,-1.164378269268348,-0.2213505486556004,-1.4455128309299443,2
34.34634952,71.26650496,1747.407692,88.30011335,71.53032709,0.050532062,0.040784131,1742.5,86.7321,0.049774519,113.0,51.53846154,70.0,424,4.482758621,0.026281761,0.008436724,1.31e-05,3.115161966,0.756711048,0.242912265,-4.775161242,50.57957935,113.8564105,0.444240066,18091.83315,2.251035141,4.964452684,1025.179125,0.576923077,0.589147287,0.921052632,0.051282051,51.23406564,51.20180917,51.2659863,44.18604651,0.456491346,0.543508654,34.18035803,37.2961124,0.587054257,0.412945743,87.23617378,73.16510236,0.565527599,0.434472401,66.25121467,58.06949372,0.771303196,1.791759469,9.613882781,6.39351067,7.290371073,1.75e-05,1.31e-05,1.31e-05,47531,33233.0,0.248393535,0.1648054,0.060982324,7.64e-11,5.73e-11,-1.0093714107925698,0.5978990342867769,1.626143158381597,-0.2565935028105971,1.5070639268195103,-0.1415413847022662,-1.0193580729525318,-1.716763421193595,-1.663258539759982,-0.3791587156188982,-1.4674268485945452,-1.7300952232314872,-1.4191631576205976,-1.4260986818972208,-1.2527298605349266,0.6044185354234718,0.1034256817305276,-0.8669821669058683,0.6180267908809696,-1.730095223231491,-1.4191631576205983,-1.426098681897223,-1.2527298605349264,0.6260678517395701,-0.4231979569250131,-0.3889673921851549,-0.1091183998532114,-0.3848537060288819,-0.4558656094962217,-0.5007152109747187,-0.5971374677747665,0.4691288565337425,-0.0367777603264978,-1.1113874919039672,-1.0059402549170144,-0.4985739981797959,-0.8663915324013379,0.2283969938228993,-1.604746394327629,-0.0918138067896127,-1.7656918564868511,1.1800027273290317,-1.0365632584723987,0.0420551018709253,-0.7421182544104573,-0.506898235383931,-0.6414859104341062,0.3241960506456867,-0.5870320746348217,2
36.41754449,64.85467209,1647.744444,71.01664941,65.02645198,0.04309931,0.039359667,1646.0,68.9409,0.0418839,92.5,51.66666667,80.55555556,368,5.625,0.016967658,0.01558171,7.18e-05,1.088947117,0.520142915,0.477656727,-4.161657471,45.98064515,88.8684131,0.517401443,12837.26062,1.932735237,4.815442468,687.0364537,0.577777778,0.581920904,0.902912621,0.016393443,51.05355124,51.03703376,51.07009723,44.63276836,0.489831942,0.510168058,32.18595025,32.84728026,0.580971735,0.419028265,67.73683917,57.52665005,0.561720783,0.438279217,53.02930687,46.84153758,0.90446776,1.934259532,10.59764701,7.503763636,8.605299251,3.35e-05,2.35e-05,2.35e-05,93681,76735.0,0.108267488,0.060367833,0.009148881,1.12e-10,7.87e-11,-0.7787051713697847,0.0181646108758815,0.4622119761784975,-0.0199416121302051,0.6307248571961256,-0.9554825982798272,-0.7720416341470013,-0.4239010564782796,-0.7115806786855486,-0.7869661313291677,-0.7065388530270033,-0.5709021535234263,-0.7987641457866601,-0.7109804898690321,-0.8185200077738284,0.494373120310252,-1.0472960097591943,-0.9454454735513664,-1.1631132691501085,-0.5709021535234207,-0.7987641457866598,-0.7109804898690327,-0.818520007773829,1.643742608214194,2.2131943306455284,2.279594357700333,1.9552809219994849,2.558393899042528,-0.671373079259488,1.826725626040914,1.4032525399330005,-1.2003960200905963,1.0792006948467905,-0.4893421044784322,-1.1136971908892623,-0.9549178951234728,-0.914236052360772,1.1013416891123553,-0.4706620773991647,-1.775804087762182,-1.1210769472836908,0.9549226738356584,-0.9884603509697746,-0.084412675883059,-0.7986462354411604,1.3129368385207287,-0.0581801937028209,0.7713939410159586,0.1610622836727942,0
35.9909306,83.93373373,1667.718085,114.5951268,84.15639064,0.068713728,0.05032849,1676.0,122.3145,0.072980012,171.25,53.19148936,79.25531915,552,4.272727273,0.014978666,0.004572692,1.73e-05,3.275678037,0.765441599,0.233674247,-5.38765321,59.5075545,151.0675922,0.393913437,28241.85916,2.538628808,5.157863393,1534.018166,0.558510638,0.56684492,0.886792453,0.035714286,50.50908202,50.49318752,50.52273485,50.80213904,0.566013431,0.433986569,44.77125254,39.2034259,0.503943223,0.496056777,107.2413103,106.3988664,0.512281255,0.487718745,82.17409473,80.17988328,0.936404366,1.640209571,11.33490112,7.025535604,8.200142134,2.85e-05,2.54e-05,2.54e-05,122369,110340.0,0.224177481,0.171396013,0.028167585,9.06e-11,8.05e-11,0.2646257694010459,-0.6329922744181169,-0.7237423700703357,0.5047781304497122,-0.5817840871904969,-0.0705515880404484,0.2748716337600633,0.7751561100700753,0.4565409467502975,0.0162222353426453,0.521002125043785,1.2730732922079058,0.9649009077199208,0.0829582451383848,0.9352924838291128,0.0616709546050494,0.3903355737634617,-0.1676810126196589,0.5413468173827142,1.2730732922079069,0.9649009077199232,0.0829582451383856,0.9352924838291234,-0.1232171823882901,-0.4265691898175365,-0.4282092812611195,-0.1480703355969563,-0.4500780296869742,-0.3587482082591985,0.8456400380656763,0.4961017234776865,-0.9690869746424936,-0.0640658777857084,1.7677348074440438,1.4066477510072402,-0.03034656612515,0.962264142564415,0.6434989934906182,0.0877634119187978,-0.2573725619266055,0.6390325145896699,-0.5036272019934173,1.5641467533213589,0.544313421762973,1.245931611263358,0.2253376097766634,0.1557075003061199,0.6291379908684998,0.4289707546542691,1
32.80538685,86.31182288,1829.544304,95.56442282,86.86854066,0.052234003,0.047176678,1813.0,100.8168,0.055607722,129.5,51.89873418,78.48101266,430,4.157894737,0.031826606,0.009083082,6.27e-06,3.503943403,0.77785312,0.221993631,-4.701341681,61.42533417,121.2299333,0.50668455,23394.14981,1.97361455,5.076077377,957.0446408,0.493670886,0.512820513,0.85,0.0,50.42947127,50.44751764,50.41121283,47.43589744,0.443457774,0.556542226,40.90565642,45.8254027,0.554591087,0.445408913,90.28098915,80.90759988,0.531887561,0.468112439,70.08541121,65.74955228,0.536515295,2.261763098,7.272172359,6.739013321,6.959217353,4.75e-05,2.04e-05,2.72e-05,60869,62176.5,0.032389802,0.016076574,0.00100398,3.23e-10,1.84e-10,1.1585827355519294,-0.7661942327635419,-0.9433136763871022,-0.3798917577827641,-1.175731084889338,-1.0319813033245726,1.2206120721791311,-0.4001222764836537,-0.2174626023039167,0.8881351934414313,0.0037482167269337,-0.3794435084041906,-0.6309859495471937,0.2025818026190299,-0.3820378458097105,-0.6231527039920322,0.0056772755430485,0.4665525584822803,0.3929406592193442,-0.3794435084041893,-0.6309859495471947,0.202581802619031,-0.382037845809711,-0.4670433462531565,0.1657896907260888,-0.3481844150721189,-0.844998340764953,-0.5098669930402254,1.6962030287882592,-1.1950364251635677,-0.5761259748303934,2.170110629106001,1.0286323544106135,-0.2769950045117963,0.7858687734445137,2.1868941482807287,1.5039112473091687,-1.156939636474614,-0.3833280492065416,1.083107722120803,1.1550195027476555,-0.3955154200670697,0.67330964806011,-2.8442551130327063,-0.3232581443143137,-0.7194260012632835,-0.6167618520532447,-0.6793991460464692,-0.4562686295968096,3
34.10130167,92.23409459,1760.025316,118.7603679,92.82534562,0.067476511,0.052404982,1745.0,133.434,0.076466476,180.5,45.56962025,74.6835443,511,4.647058824,0.028725715,0.005268228,1.09e-05,5.452633622,0.844754611,0.154925981,-5.246061289,65.63743135,155.537279,0.422004498,32072.73137,2.369642989,5.213106057,1474.27129,0.481012658,0.5,0.794871795,0.0,49.24840286,49.25541187,49.24591027,46.15384615,0.480382967,0.519617033,45.49589678,47.31731788,0.452768591,0.547231409,104.6580511,115.0588436,0.456943407,0.543056593,80.69443685,87.97006898,0.624386597,1.763588592,8.901456587,7.44596294,7.921208623,5.69e-05,6.4e-05,5.69e-05,75908,92579.0,0.099363746,0.057799241,0.006047753,4.05e-10,4.05e-10,-0.552607958692219,-0.2595005490807847,-0.5688938978007602,-1.1740261279577624,-0.8548928069249262,0.7571618964944317,-0.6017081728255826,1.389100361121013,1.3263559941705891,-0.624208491374982,0.4835199577744479,0.7098891172013085,0.8653195513250764,-0.320978942900149,0.1475318239797035,1.7000089999156305,2.4716405582150625,-1.9883553879989384,0.5246710613310023,0.7098891172013032,0.865319551325069,-0.320978942900149,0.1475318239797031,0.0741501391029954,1.4881769334915342,1.6448707049877365,0.7452667047854109,0.711730235472793,-1.0464288747445212,0.970018904503187,0.1135892018862395,-1.085518738813996,-1.0700109900171535,0.0875607102536479,-0.676110036550778,-0.9131975944242638,-0.8917415014105436,2.6302010367166653,1.7124900643738714,-2.191433206415724,-0.6128498541914774,-2.236449514966959,-0.9054703900621917,-0.5957308156166371,-1.1354626648308743,2.7123375496242352,1.6336208160265395,0.7122691427959797,1.3193153446184034,3
37.3411433,82.71371129,1607.257778,98.60923622,82.8987953,0.061352471,0.051462629,1597.0,99.3342,0.062200501,129.0,57.77777778,80.0,547,4.891304348,0.06085997,0.007558865,2.7e-05,8.051469733,0.889169483,0.110435674,-4.88503427,58.61830031,126.5321982,0.463267857,23301.51438,2.158578422,5.074354257,1092.51869,0.422222222,0.426008969,0.663157895,0.024691358,50.12329224,50.11382972,50.13352453,46.6367713,0.50471286,0.49528714,41.64436773,41.25367221,0.532070226,0.467929774,92.29656355,86.55484693,0.527236293,0.472763707,71.59926329,67.79973082,0.974123235,1.869317704,21.09636567,17.94614529,18.86851986,1.93e-05,3.3e-05,3.03e-05,180510,179375.5,0.214367784,0.242993495,0.020170452,5.3e-11,8.32e-11,1.2868219456511352,-0.9292820503401792,-1.0049858344460123,-1.5047322954135165,-1.5483705236164298,-0.7149616686818788,1.248580866327597,-0.1113634051466937,0.3341787680227462,0.2665350897357788,0.5977493201603953,-0.0760865964917492,0.3869500136603891,1.1957181919299222,1.174929692569549,0.4376505253100038,0.9546209118547228,0.1240474169299751,0.3130683942169223,-0.076086596491751,0.3869500136603844,1.1957181919299222,1.1749296925695594,-0.773250300054311,-0.6220264043025385,-0.740611119593336,-0.920015153188149,-0.7614704375557618,0.7649648536926864,0.3163510305906995,0.0398827072187704,0.0205965241403172,0.802300265276468,0.6050187759811003,0.7214337778533207,0.7210044231742558,1.691699736842988,0.0875897707293396,1.9819515677964383,0.3895981781450702,0.6319515472535654,-1.4897724795846785,0.6904136216812887,-1.8631732448815617,-0.0185705413042042,0.2231684116767937,0.6602002073120632,0.2872732781747661,0.5423964796047689,1
37.65781882,85.18861919,1593.533333,101.0887731,85.53803676,0.063436874,0.05345895,1579.0,85.9908,0.054459025,125.5,48.33333333,74.16666667,566,4.0,0.059066202,0.003056668,1.62e-05,19.3237199,0.950548325,0.049190753,-5.790429741,60.48452584,129.7759472,0.466068845,24659.73246,2.145605762,5.09895847,1113.79208,0.383333333,0.394957983,0.574468085,0.0,48.91142664,48.88111271,48.94605494,51.2605042,0.566116061,0.433883939,45.51471172,39.84610225,0.490645524,0.509354476,90.90298152,92.61989213,0.504116481,0.495883519,71.88512027,71.29570914,0.75937503,1.386294361,25.7642176,21.47011257,22.95072685,4.15e-05,3.63e-05,3.63e-05,81170,60579.0,0.189745198,0.168745782,0.017027128,2.15e-10,1.88e-10,0.3111571282884688,-0.3904956004444406,-0.5326608335429606,0.0476540543195959,-0.5901371289980726,-0.6384146760855427,0.2618997945848106,-0.7474446547317953,-0.9105367829560456,-0.6138849931474815,-1.3193621592406255,-0.8091285726581439,-0.7747542830780706,0.2771290822864353,-0.9141755972355888,-0.8322971313940868,-0.9676587158368352,0.4215155784958694,0.3100702604593919,-0.8091285726581476,-0.7747542830780696,0.2771290822864353,-0.914175597235586,-1.1751908144820515,-1.338984172437227,-1.055299395183545,-1.8177918258517043,-1.0092362807671829,1.045263883826504,-0.0757414002943287,0.037048187909046,-1.0527318702224466,-0.288566678316012,-0.8787411061354864,-0.7967673870218731,1.2479891746359424,-0.3314477946384267,-0.5530186024748633,-0.1427700607723117,-1.5558744733403933,-1.95434827049714,0.2243328821296542,-0.7680536322249341,-1.1873621635775666,-0.4240105642341293,0.4504190606098496,-1.0092142674575877,0.0461200085843933,-0.5298960766381019,0
37.65357162,86.00071059,1593.494505,102.5583166,86.42630816,0.064360634,0.053969882,1580.0,103.782,0.06568481,126.5,59.34065934,84.61538462,518,4.333333333,0.01396708,0.010076053,4.37e-05,1.386165774,0.579862975,0.418321521,-4.597593654,61.11262857,129.8259617,0.470727332,24925.41426,2.124372078,5.103612495,1103.194592,0.505494505,0.511363636,0.8,0.0625,47.74089069,47.86310063,47.61537324,52.27272727,0.484740502,0.515259498,42.57630295,43.89613635,0.482654746,0.517345254,90.19445504,93.37955139,0.483033486,0.516966514,70.52581546,72.96098754,0.608795491,2.583997552,25.31235246,20.7667131,21.96973134,4.11e-05,3.43e-05,3.43e-05,76499,82027.0,0.22255832,0.147609774,0.049191878,2.82e-10,2.35e-10,-0.823549475578938,0.5359784436096968,-0.0501975133805833,-1.237547865092086,-0.3619786207620783,-0.5926395745129337,-0.8623607505418286,-0.2738315504500438,0.4348763559103699,0.8337292731980771,0.2649816573906906,0.1210778733259024,0.2577269934911282,0.4048879262960949,0.2096837876359574,-2.5186901614667736,-2.231273267655404,-2.642487089566912,-3.316317822682298,0.121077873325902,0.2577269934911327,0.4048879262960949,0.2096837876359448,0.647378796841113,-0.2362091735447711,-0.3103144906469195,-0.3890091772690126,-0.4123458403033049,0.340806468387247,-0.1300560729777882,0.6534127302709825,0.6207212125236116,0.094311662077543,-0.7260996698794923,-0.7429482537799669,-0.3906232556377194,-0.9205498180434006,0.5501096028703925,0.0584485783472282,-0.6350624904192173,-1.0083994638656897,-0.6132450990670434,-0.6552518000582687,-0.5282974156921028,-1.1523440119798969,-0.0147400939118054,-1.270693335036769,-0.7084405072247202,-0.9877288145515474,0
42.65843211,77.16995927,1404.181818,150.69024,77.25076828,0.107315333,0.054957241,1426.0,106.7472,0.074857784,142.25,35.71428571,69.48051948,983,4.529411765,0.01244738,0.000925164,9.27e-06,13.45423963,0.930171418,0.069135934,-6.985539418,54.62454211,199.4775705,0.273838016,34231.95892,3.651793915,5.241401862,2913.803912,0.376623377,0.373333333,0.607142857,0.024390244,44.863103,43.75373632,45.69791445,56.0,0.37692642,0.62307358,33.61131349,43.21423833,0.413184889,0.586815111,128.2231037,152.8075155,0.410645104,0.589354896,93.73069059,112.2889291,0.804472891,1.061084433,32.22680522,25.54833136,27.52765813,6.45e-05,7.37e-05,6.91e-05,106292,101374.0,0.373769513,0.381202145,0.014327443,2.97e-10,3.19e-10,0.6637172206515362,-0.6160939941077201,-0.4562696989386274,0.6652931540184399,-0.4350669593323614,-0.7230756498970905,0.6210948885058399,-0.4547428704048205,-0.2906372733922022,1.2156843043286238,0.1596052308469508,-0.5322135102071842,-0.0530899924074876,0.6545959940260762,0.0979356110050863,-0.7246124386589682,-0.2461723945178827,1.6039604500755156,0.3142877797873722,-0.5322135102071823,-0.0530899924074867,0.6545959940260762,0.0979356110050844,0.8170858039082598,2.3778758360505026,2.596164990668017,1.280271778449638,2.712882409295301,-1.7481026357891654,1.591922010216595,1.689731392936502,-0.8521854104029559,1.1939679723629055,0.5722305174060478,0.8294512002885842,0.5832915928270525,0.5394365527493964,-1.7545532462390607,-1.7097107935194331,0.7633468246020474,0.5319753482024945,0.8084627859135868,0.944421555888437,-0.3780616830004776,0.6991859806126673,-1.351532488043347,-0.9114670518238835,0.2795526318543258,-0.6458118926229837,3
36.76138402,103.8027412,1632.895928,125.2309976,104.0389468,0.076692578,0.063569723,1617.0,109.7124,0.067849351,146.0,59.2760181,81.4479638,709,5.390243902,0.049499187,0.005126729,1.13e-05,9.655121069,0.905961476,0.093832223,-5.273287485,73.56664478,161.4919452,0.455543741,37323.44197,2.195178884,5.278951798,1418.014832,0.393665158,0.397260274,0.563218391,0.028985507,50.22266205,50.16594762,50.28718739,50.68493151,0.631812165,0.368187835,58.47592487,44.63934624,0.456119881,0.543880119,109.0662464,119.0974486,0.486313979,0.513686021,87.50679941,89.93573677,1.003058235,1.482309014,20.0144298,17.35929928,18.27244152,1.65e-05,1.38e-05,1.38e-05,83725,63346.0,0.053138844,0.029875341,0.003313964,4.56e-11,3.8e-11,0.284690265178754,-0.4638402763659025,-0.0627800560044404,1.8983902178185603,0.914641806256472,2.652340535630948,0.2839032457152252,-0.0515994064581275,0.1057709637331323,-0.6378467348743221,0.0301955842142878,0.0352862003791112,0.1505597721865636,-0.0964821577114408,0.4165077845925068,-0.0072223575525255,-0.209521850917983,0.3206964377451567,0.2987390692485188,0.0352862003791171,0.1505597721865604,-0.0964821577114408,0.4165077845925071,1.163971195712176,0.3733589482243062,0.4070053555185682,1.6091230165764436,0.7983281662979568,-0.2785994276143465,0.1997455211234843,0.3265949720800812,1.6560274750696609,1.49881341691241,0.7811427590333598,0.8712635076665816,0.199535627360847,1.249366078920671,0.0888979662827221,1.466504226810902,0.2780555076958458,0.8913110087676885,0.016039831336538,0.7272589216099037,0.100104545123583,1.419870655566782,1.2617708555990856,1.4594113303562652,0.7010761904593021,1.438041043231853,1
39.17228148,79.87307757,1532.419643,108.348188,80.05255768,0.070703993,0.052122196,1516.0,101.5581,0.066990831,142.0,48.21428571,76.33928571,526,5.743589744,0.047130145,0.004441506,1.79e-05,10.61129791,0.91355931,0.086093079,-5.416761728,56.60570638,142.4032415,0.397502935,25323.8634,2.515704698,5.110500072,1432.978015,0.388392857,0.389140271,0.523255814,0.0,49.8513092,49.82822111,49.87385765,50.67873303,0.538617042,0.461382958,41.54334001,38.44962775,0.439445932,0.560554068,94.40013158,106.617533,0.452977748,0.547022252,72.92884869,80.1425986,0.970832328,1.529242288,21.97284012,18.53777058,19.46026604,1.45e-05,2.32e-05,2.32e-05,123258,135824.5,0.293300992,0.240082156,0.089138655,4.19e-11,6.7e-11,-0.6557506825696088,0.2812199288846567,0.2611806037122697,-0.627901293278051,0.2756039433587759,-0.4686334465068691,-0.5646435532639199,0.047143738020814,0.3052971754896054,-0.1249827040285601,0.3444761546078979,0.0528853048998283,0.7349761551536372,0.6300031676262474,0.8477714428635715,0.8284635354143792,0.377333059215112,0.0987441690093922,0.3085102396046513,0.0528853048998285,0.7349761551536385,0.6300031676262474,0.8477714428635709,-0.5442376813687378,-0.8035119546323717,-0.684205154979255,-0.5900100965943894,-0.7276841862087499,1.2569979750741345,-0.9177503505263868,-0.9091122336096792,0.9542726854368132,-0.6937180510609209,-0.8236183974757084,-0.3116116616397567,0.8919320254789005,0.327673477940117,-0.0062601042355005,-0.4978967986197948,-0.2321879805324997,-0.255382271233132,0.5418340114877347,-0.4943497572125118,-0.2638127180909526,-0.007736136323428,-1.4755175399010774,0.0215106785922102,-1.463118370600284,-0.5982303978930579,2
38.75317334,86.12638054,1548.577273,111.3743469,86.32103462,0.071920432,0.055616457,1535.0,94.8864,0.061815244,135.25,50.0,80.0,772,5.365853659,0.026449585,0.002240743,7.87e-06,11.80393232,0.921646315,0.0780796,-6.100947553,61.03818894,145.1857818,0.42041437,27840.40824,2.378605662,5.151645709,1381.35889,0.4,0.398148148,0.534883721,0.0,49.45005945,49.41980841,49.49383666,50.0,0.617010406,0.382989594,47.94697951,37.77534995,0.394445773,0.605554227,91.18381124,112.9797495,0.427876854,0.572123146,72.8471011,84.23598062,1.022787953,1.488293529,24.65577543,19.42544456,20.68155732,2.04e-05,2.33e-05,2.33e-05,102497,62582.5,0.31674281,0.146612393,0.074730503,5.93e-11,6.77e-11,1.7523151603127485,-1.023746470168858,-0.8793343479367761,1.0847347133006522,-0.6690466626757233,-0.6347404204409186,1.8121247907421263,-0.6672957475088861,-0.5560018574840613,1.0676771032467784,-0.0751808423294519,-0.6736741334131809,-0.3915241647831197,1.9441695376096908,0.2424490306080531,0.6783514745310436,-0.868611365450836,-0.1916415755065234,0.3109885581725893,-0.6736741334131827,-0.3915241647831206,1.9441695376096908,0.2424490306080614,1.1083039113510704,-0.4007256290175896,-0.2645675453749584,1.3944501831806488,-0.0660367639964324,0.5246780836920681,0.0816957456313902,0.0587483751987666,-0.522868832583431,0.3664972497376849,-0.8617012801122547,-1.0737233142318436,0.1830707022230195,-0.7957952922530951,1.2941308246882597,-1.0870560851873816,0.0116294502753402,0.9393800797499948,0.6517004204197183,-0.98713616703799,0.4731207667785842,-0.5728738444271223,-0.7263549934741665,-1.0157584379538556,-0.947675444545145,-0.930620876121728,2
38.51702424,64.44345066,1557.627586,71.27791313,64.66586012,0.045760562,0.041372823,1556.0,77.0952,0.049547044,98.0,46.20689655,79.31034483,339,5.0,0.066973138,0.005754427,3.07e-05,11.63854172,0.920488705,0.079089694,-5.157785817,45.7256682,88.88072248,0.514461032,12767.84229,1.943781818,4.81308762,691.0589294,0.372413793,0.377622378,0.481481481,0.02,49.45377032,49.48643775,49.41850427,51.04895105,0.559350262,0.440649738,34.19943565,30.35454828,0.392080354,0.607919646,55.65383766,69.29959006,0.42708876,0.57291124,46.18956075,53.4968774,0.625851956,1.446918983,22.47247877,19.72583284,20.60678879,3.5e-05,2.62e-05,2.18e-05,103961,90816.0,0.226982572,0.150821494,0.0474898,1.53e-10,9.54e-11,-0.1686066207144325,0.0005628154931946,-0.2965307786360907,-0.233241702935819,-0.3726508117922524,0.8335839915420011,-0.1837599415593327,-1.1942208780271006,-1.4917542223482885,0.5925055342511737,-1.6373401481094545,-1.1237350325645017,-1.5409782658163975,-1.3748068898997858,-1.6700051557291071,-0.5002475889018541,1.2083513182413412,1.3332126720331945,0.3075569456641345,-1.1237350325645006,-1.5409782658163969,-1.3748068898997858,-1.670005155729106,1.191804837892729,-0.5187745337036218,-0.5901979390555663,-0.0941383585793164,-0.5334132409634311,0.9077439489104449,0.1733182364136677,0.1329304652220622,-0.0107593355630192,0.0927684097124954,-1.3287363288299598,-1.8829030760488648,-2.088251956513745,-1.9768547577231463,0.2734946748438408,0.1663332292130104,-0.3985893245538907,1.050100165706894,-0.3140448473943256,-1.702166740541185,0.8016916824759303,-1.7403270216348472,-0.7731884263592085,-1.0296514375020025,-1.5490357763409746,-0.9680948506182768,2
40.65186286,52.27394188,1475.21393,71.93433815,52.37723598,0.04876197,0.035434821,1469.0,68.1996,0.046425868,83.0,28.35820896,65.67164179,512,5.911764706,0.01936355,0.004221129,1.07e-05,4.587291177,0.820650161,0.178896462,-5.467652533,37.03629874,92.70083935,0.399524956,10786.01743,2.502972556,4.739831228,928.1106274,0.472636816,0.466666667,0.714285714,0.028169014,47.81326151,47.61884678,47.98644161,46.66666667,0.412637943,0.587362057,23.80363555,28.39956295,0.449614576,0.550385424,62.15897688,68.77286681,0.444520117,0.555479883,47.06565347,52.6129375,0.980770814,1.625585899,27.36848631,23.37270917,24.78400811,7.04e-05,6.03e-05,5.7e-05,150679,154033.0,0.283667676,0.269133195,0.035032366,2.36e-10,1.91e-10,-0.9809548100419156,0.6308112600904203,0.6255227498659012,-0.4300336872614678,0.7728310254464317,0.475344066191148,-0.9453373062999942,0.5581715062724386,1.0097043358914093,0.3156043756859849,1.531347485153178,0.5514175855617768,0.2271853398894262,-1.2744364797390848,-0.4049155509235572,1.282116482696788,0.0407864369211283,-0.4343657319605845,0.3017877302753775,0.551417585561775,0.227185339889421,-1.2744364797390848,-0.4049155509235573,-0.525217525761913,-0.1874044489953256,-0.4236389005110444,0.002652182037247,-0.4095303193577206,-0.1854121023448866,0.0935493608063378,-0.0765499761670685,-0.7843879610134777,-0.3848826935822776,0.3325418908584318,0.9853931420291816,0.4791484868279044,1.05429675578074,1.0482213732946857,-0.1355027255295246,-1.573680207786567,-0.2887597641655723,-0.5532037401772592,0.6704374359624402,0.1463114131387277,1.3622036169830094,0.5727872227305538,1.6339561415136048,1.8639393305721448,2.302575270952946,0
37.70628891,95.248306,1591.822335,113.8188854,95.49021432,0.071502254,0.059836016,1567.0,103.782,0.066229738,157.0,52.79187817,79.18781726,541,4.104166667,0.084291849,0.004453145,2.29e-05,18.92860946,0.949575436,0.050166149,-5.414144613,67.52177808,146.4162827,0.46116304,31058.68895,2.168430495,5.199153229,1269.974129,0.395939086,0.4,0.487179487,0.031746032,50.42346189,50.43395404,50.41147511,49.74358974,0.517385678,0.482614322,48.56911544,46.9086674,0.469492327,0.530507673,100.3237197,106.6437016,0.47789188,0.52210812,78.81563204,82.38113307,0.906955757,1.570217199,18.68455801,16.99498966,17.59517464,3.49e-05,2.85e-05,2.85e-05,137896,121142.5,0.048370623,0.026157234,0.002066307,1.11e-10,9.06e-11,0.7819116104770713,-1.0445626215503538,-0.9063076904817986,1.2819399116366634,-0.837861320789386,-0.6512745708417271,0.8192869891241374,2.5669666602205816,2.4458758488869834,-1.984493871375588,1.7661335583295807,2.782006507864271,2.5040568178767573,-1.1811068398738522,1.8825498927928448,0.6951342068100579,0.5559920325266732,-0.1904957248644315,0.3048224594027954,2.78200650786427,2.5040568178767586,-1.1811068398738522,1.8825498927928417,0.2815928746591178,-0.007491174472805,-0.0596461517611871,-0.0719859196134113,-0.0829298896699383,-0.5529244801238288,1.2997909232014266,1.1580315345235506,-1.4292377193688768,0.3528122900297663,2.1420051462051384,1.128730320132497,-1.1381657281362596,0.1535084234977086,1.4926591149259094,-0.8050053721456577,-0.2805138371769173,1.104731901459498,2.4215604382163973,1.4184080614431307,0.6299952997238715,1.0908262032012994,0.3088557372369663,0.9584868119280908,-0.132924511779016,0.1574695690261964,1
42.67911513,58.09800892,1406.163462,100.8348752,58.37459529,0.071709213,0.041316682,1395.0,99.3342,0.071207312,133.25,30.76923077,68.26923077,479,4.952380952,0.025756087,0.001726876,1.7e-05,14.91484179,0.936587426,0.062795666,-6.361441099,41.27707218,137.0582185,0.301164517,17773.12683,3.320444288,4.95673395,1820.376715,0.394230769,0.396039604,0.55,0.0,51.04803493,51.05867801,51.03415707,52.47524752,0.560759814,0.439240186,30.91385881,27.35998223,0.373564109,0.626435891,83.76983392,108.4784319,0.38913454,0.61086546,63.138941,79.10796046,0.638136097,1.232143681,30.39878112,26.39494424,27.90946281,9.51e-05,8.15e-05,7.47e-05,73387,75458.0,0.260303981,0.220672096,0.023868412,6.46e-10,5.07e-10,-1.9111570935033748,2.719526956194485,2.854673221793667,-0.8298963871533249,2.4430289216686747,0.9721340481413696,-1.900807836259852,1.2402312982177053,-0.3905536676317723,-1.688963497851959,-0.5539965348703048,0.6182560213908875,-0.1842312123568867,-0.8242618581261626,-0.4363496185223244,0.8328417324366504,1.5418331029985946,-0.2495323465724592,0.2678165862916846,0.6182560213908892,-0.1842312123568867,-0.8242618581261626,-0.4363496185223252,-2.064731297231969,0.0,0.0,0.0,0.0,-2.012262669140546,-2.593143862577592,-2.4428962770918448,1.7525327753527733,-2.5398604912046325,0.9573968483026556,1.0761569606556316,-1.448520388288003,-0.3315283153040885,-1.1145178081774971,-0.1964489618283604,2.0461903728479727,-0.1199687960765453,-1.2204318621919952,1.1945889239282903,2.297847999517374,0.4993180763171387,-0.5494283402243316,-0.0336731442472312,0.2656752474316054,-0.3656560879077857,3
42.18558139,44.87232748,1422.510204,52.54085203,45.10221305,0.036935308,0.031544468,1420.5,45.2193,0.031833369,60.25,23.46938776,67.34693878,298,4.666666667,0.067596297,0.007280794,6.43e-05,9.284193567,0.901988568,0.097153141,-4.922515413,31.89208069,67.04972638,0.475648186,6717.841252,2.102394228,4.534199847,563.859831,0.408163265,0.422680412,0.512195122,0.032258065,50.72463768,50.75238681,50.69688949,49.48453608,0.508284181,0.491715819,22.73877928,22.36510489,0.585493594,0.414506406,51.30481002,43.1680701,0.571246818,0.428753182,39.6814542,34.37790128,0.627393655,1.871802177,29.43246956,24.5063068,25.80883604,4.98e-05,4.98e-05,4.98e-05,65349,56624.5,0.344620259,0.37379743,0.041131982,3.54e-10,3.54e-10,-0.5405946481514421,0.2999216087049959,0.4476901779954501,-0.1146588199596512,0.4090063312359518,-0.5096626345385054,-0.5899811870748056,-0.9120146900040677,-0.9962196441218752,0.7584361208315,-1.108609306153146,-0.9460916480870184,-1.3168771738159364,-0.3554096744241387,-1.44638131965699,-0.1714882792247145,-0.1556792673786438,-0.1936542558181926,0.2786697995588619,-0.9460916480870192,-1.3168771738159353,-0.3554096744241387,-1.4463813196569903,-0.1275098014654819,1.3638927068314424,1.1253103509192268,-0.4035466291479936,0.4914363832292648,-0.0631538985703139,-0.0396811416074996,-0.6678218784911787,-0.351979543368972,-0.49444335194543,-0.771439155353834,-0.8044752159034918,0.7595892960478013,-0.6598050477694702,-1.406753566508228,0.9011531954348716,1.18708798024321,-1.522591485301996,-0.4732323410883269,-1.0385704234386055,-0.2283644815154089,-1.1555424127772689,2.073760594060688,0.5368925043190939,1.3575579234136017,0.5855566335377157,3
