ECG_Rate_Mean,HRV_RMSSD,HRV_MeanNN,HRV_SDNN,HRV_SDSD,HRV_CVNN,HRV_CVSD,HRV_MedianNN,HRV_MadNN,HRV_MCVNN,HRV_IQRNN,HRV_pNN50,HRV_pNN20,HRV_TINN,HRV_HTI,HRV_LF,HRV_HF,HRV_VHF,HRV_LFHF,HRV_LFn,HRV_HFn,HRV_LnHF,HRV_SD1,HRV_SD2,HRV_SD1SD2,HRV_S,HRV_CSI,HRV_CVI,HRV_CSI_Modified,HRV_PIP,HRV_IALS,HRV_PSS,HRV_PAS,HRV_GI,HRV_SI,HRV_AI,HRV_PI,HRV_C1d,HRV_C1a,HRV_SD1d,HRV_SD1a,HRV_C2d,HRV_C2a,HRV_SD2d,HRV_SD2a,HRV_Cd,HRV_Ca,HRV_SDNNd,HRV_SDNNa,HRV_ApEn,HRV_SampEn,Unnamed: 0,max GSR,min GSR,mean GSR,number of peaks,number of peaks SCIPY,number of valleys,mean time between peaks,median time between peaks,mean height of peaks,median height of peaks,variance height of peaks,ratio of peaks,ratio of valleys,0,1,2,3,4,5,6,7,8,9,10,11,12,13,14,15,16,17,18,19,20,21,22,23,24,25,26,27,28,29,30,31,32,33,34,35,36,37,38,39,40,41,42,43,44,45,46,47,48,labels
0.5156881296243656,0.127364090367118,0.3137332984934945,0.2649309651027024,0.12719830799284457,0.3110859707865593,0.15041661598919415,0.31221889055472263,0.08379120879120881,0.12255744650013997,0.07270194986072423,0.3361995572848105,0.47279239569639675,0.22511282187417045,0.8033252656758376,0.2981993938676439,0.03605439016820294,0.03695890873701023,0.14625525270333203,0.8125555930982499,0.17062251142671855,0.49693608770764086,0.12719830795912646,0.323439199611806,0.24124331260046866,0.05506585167088296,0.1947750250420955,0.5371015096626945,0.30394165667624273,0.6940068759991339,0.6514828399144873,0.8170846885725216,0.3241525428275953,0.7256821220638754,0.7340782594013862,0.7258694324067818,0.30144459045298255,0.4504593437149166,0.5495406562850834,0.10999611337624071,0.15514816899617498,0.6540840191184376,0.3459159808815624,0.3230525411913597,0.27672884518854635,0.6350428076904183,0.3649571923095815,0.2808255032137148,0.24732502749320098,0.5331662932788852,0.12410664014141148,0.0,0.06775087681071063,0.05940804384378774,0.06286541489414879,0.26817491590581455,0.2363027420647365,0.2577848095251671,0.4057512406200503,0.3780670991158907,0.014277298982183668,0.00811550981246605,0.0006109030756577081,0.10674289430270442,0.10442615546302757,1.6902215437174173,-1.2816483980597757,-1.4188815580487677,-0.0532782647493212,-1.1088884069075684,-0.2146107735628214,1.7382644192689063,0.5059206401333085,0.3292267073040211,0.0603001940764544,0.7898756696588056,0.6769309562363252,0.6295468377157767,1.426845385831248,1.4954001838215991,-1.0024359264063485,-1.7464299950677526,0.6705797276150854,0.5485925445456935,0.6769309562363292,0.6295468377157719,1.426845385831248,1.4954001838215891,0.7741883661068701,-0.1860219037960331,-0.0929148117465612,2.535333949787367,0.3750676004548242,-0.7014474000475857,1.107376428332273,-0.0290956674065961,-2.004206326596972,-0.6149664779329944,0.54804674413995,-0.2003553356764995,-0.1304671453659811,-0.0335246234383228,0.1552184765282829,-0.8073076737760445,-0.1548689858474242,-0.0765800174852446,0.8198723348556243,-0.1147582382012884,0.7809229563050523,1.0608355370930402,0.2134363501008597,0.3015814023583767,0.2030835151726006,0.1779959637407657,1
0.4670980808585079,0.04395283065354649,0.35590698412250166,0.10228525645095117,0.04403549743693998,0.11836496633585991,0.050788638051368316,0.3437031484257872,0.0673076923076923,0.09507391101849122,0.06852367688022284,0.29953203464160844,0.5204380542626458,0.07512609503583753,0.5110105581079993,0.2772523471003846,0.020028532278061114,0.003975214368531252,0.2411068880582765,0.8967901848840908,0.1015148146380006,0.4115993997325498,0.04403549745387555,0.12680064159943522,0.2190175844790354,0.011469314758991073,0.21521858187622753,0.3043194369432105,0.14476031861534416,0.6523397916884898,0.6411012605009886,0.8335403471805312,0.1287878797054924,0.5987125236552986,0.6415604219336779,0.5536228664322684,0.29973846009458693,0.32155044919324594,0.6784495508067541,0.03252764972891914,0.06232415961324204,0.6453069966805369,0.3546930033194632,0.12967578129563317,0.10573443589281414,0.6161896602581222,0.3838103397418779,0.10994569360749928,0.09478186169473501,0.5050269188871384,0.22154509867105682,0.0,0.1721994949919553,0.08901729396257992,0.13821537847468054,0.4194017484990916,0.445288904784613,0.48576971431048693,0.411881319537083,0.33204778693808984,0.12120969521433382,0.07422418961339161,0.026754281955108518,0.3250642443100962,0.3708134812506017,-0.0219512171754642,-0.1444127087440131,-0.1753428630050199,0.3132635077399242,0.0350890884713502,-0.6742941166395843,-0.0784009533811368,0.0255801545636563,-0.2678966800755965,-1.1920390894756838,-1.087412687733347,0.3318743938675369,0.0844064378181334,-0.5799267434374008,-0.1068102172785687,-0.4034803073346443,-0.8379658744223446,-0.3003818231367215,-0.9525336521475344,0.3318743938675277,0.0844064378181372,-0.5799267434374019,-0.1068102172785632,-0.769587146775246,0.6931794574284911,1.1953482570511496,0.5973714326304022,0.8751577343945899,-0.2416443383591492,0.2259825081953561,0.5389066488068724,-0.0831097916503934,-0.1411952698937587,2.146258112351574,2.969648130943929,1.9625752456260488,3.1508985146895,0.7060356493821088,-1.021212202137434,-0.9589493581548204,-0.6221173929738655,-2.216461503801521,2.951329545265569,-2.097351841144838,0.0281311148092313,1.8551391339346528,0.7107311169399793,1.5357146569666655,1.4087065893148778,0
0.4411278955393594,0.122873038547609,0.3783740983641334,0.21792335426727022,0.12303566194983093,0.2414916529581192,0.1365186853223394,0.38155922038980516,0.12362637362637367,0.16266409278242377,0.1158774373259053,0.37986090194878447,0.5438569626702211,0.18051499867268386,0.39819004522724755,0.48372871297816866,0.041581280619632406,0.012451212312971685,0.2075632311132615,0.8763478064318754,0.12031857712259059,0.5179851039927695,0.12303566188151951,0.25480490312692833,0.2987460619018851,0.04392632934342418,0.15292061087247016,0.5020481938742369,0.20070553566987198,0.5088211806666759,0.48790227938017117,0.6321266538981685,0.0965909081853693,0.3910598512457395,0.48090529363146106,0.30171503750513295,0.2206995176499782,0.37595172561893797,0.624048274381062,0.09897103588096372,0.15899654739834992,0.8989090431671691,0.10109095683283109,0.2982041259902625,0.1656408940815314,0.8311449771613091,0.16885502283869064,0.2586230459844325,0.16245424318448184,0.5381661664527038,0.24339812991939141,0.0,0.09180322428710869,0.02174506577487842,0.08211221534789026,0.41549334238967045,0.5044737364948653,0.5503349852671257,0.3316959814095116,0.31122332455155793,0.09075292283277377,0.1120914738182369,0.005827367515376646,0.4295890416225357,0.5552590926831069,0.2215460089282792,-0.4899465698270083,-0.1536444913575718,-0.671715699458486,-0.6551880617847169,-0.625526972309485,0.1268125137683251,0.9569161719198518,0.4048172006262624,-0.3134134398573617,0.369823408847688,0.2440029037466249,-0.0081701733042484,-0.4688314234210926,-0.2629676565304646,0.9482355453082716,-0.6924530534059649,-0.7455548886649003,0.4234624026265903,0.2440029037466153,-0.0081701733042458,-0.4688314234210743,-0.2629676565304581,-0.5209011303031852,-0.510259168802534,-0.5004867359017893,-0.2756138821095126,-0.558924267344444,-0.6850018890820868,-0.1647746979405497,0.6566682702602519,-0.2620601053384787,-0.5473678340416519,-0.174459048134681,-0.3806711013238986,-0.2535221742202336,-0.4585482834482524,1.111282903762225,-1.443470105440062,-1.3382710153988389,0.1674461620185739,-0.1711462454782942,-0.6015646356339642,-0.6891218143239742,-1.4529798520652693,-1.6894489932420689,1.803681477136945,-1.6271785351614698,-0.4521807969582218,0
0.36142799486623955,0.08976386364224354,0.46146652941762933,0.18064681518306108,0.08987260709870716,0.18522859101589553,0.09214372569832183,0.4355322338830584,0.09340659340659342,0.1147899961373941,0.08133704735376046,0.4405835593431275,0.731747773361557,0.18529333687284313,0.6378414613952302,0.2782333236814176,0.028420599952403723,0.007536180559934165,0.17248428541672184,0.8500138320324825,0.14667935397219123,0.46209125157378805,0.08987260709731643,0.22083604212742686,0.25029637955814726,0.030208278104959328,0.1872286173216016,0.44479846410768387,0.20719219172197859,0.7460415186408386,0.741288231089318,0.9289150561547364,0.0,0.6930083229284985,0.7050112215700499,0.685628050555072,0.23566302651353155,0.5369842436634226,0.46301575633657754,0.08468333874585636,0.10208681775587866,1.0,0.0,0.27501442768334167,0.1191184449407722,0.9522976649284998,0.04770233507150007,0.23710783130476676,0.11348779773253967,0.7198961361822647,0.2568623513474343,0.0,0.19045558641603133,0.0551754603511916,0.13221430263136932,0.5194274474679744,0.5090904272235769,0.555371375152993,0.5352868291062179,0.5116018829076437,0.18529283262018684,0.130971084122792,0.050280489835583114,0.35445286299851125,0.37697900085917674,-0.0762063923322701,-0.0235983268187204,1.016250881379907,1.6250852900883412,1.6249228704474832,-0.1450645851268536,-0.1097113361629998,-0.4202974327129501,-0.26413558926485,0.2048901196407516,-0.0200196140283835,-0.5287607856517934,0.035712762256918,-0.266013187094485,-0.1974851560578641,1.2621583926277835,-0.076889804193718,-1.490910332057539,0.4787852977674257,-0.5287607856517883,0.0357127622569186,-0.2660131870944861,-0.1974851560578667,-1.1426608509688692,-0.7704621150146476,-0.6148155743550102,-0.5649398539997811,-0.7060096008561397,1.154448899406021,-1.0703944872058644,1.4721168026889344,1.8461826853296164,1.2771101534126963,-0.4923412000496368,-0.108300045189313,-0.1738146221763979,-0.0770776216737877,-1.07401912114662,-0.2368338064788162,0.7781491190241777,0.369709411772258,0.0160034462491816,-0.0901860296472491,-0.7811419887165492,-0.2695856817572709,0.7530794032678922,-1.0724185514780151,0.6934728183788144,-0.3484161691693325,3
0.41092570396269434,0.02966232734198166,0.40972726860674313,0.09327414143184563,0.02963050752425789,0.1015676043942017,0.03207961000525076,0.3883058470764619,0.0741758241758242,0.0975204442777822,0.06908077994428971,0.26441734662428457,0.4847229434084125,0.08229360233607647,0.5993166497774126,0.039841462065436414,0.010257451206014078,0.0007074561731635787,0.06698838675262299,0.6658258812291307,0.33361799696405825,0.31872975641036727,0.02963050753263504,0.11786332634745954,0.17126204363841052,0.008337277952932806,0.27121983007385475,0.26176010844605213,0.17002234382387574,0.7950843276092475,0.7609412975055837,0.8939600638773819,0.28813559268008465,0.6956411254189576,0.7094343987885656,0.685468629737124,0.36254319318518036,0.5422437160599151,0.45775628394008494,0.03019269767684388,0.0336235673819544,0.6006021097314916,0.39939789026850836,0.1160916473409139,0.10271927261505495,0.5961611727157017,0.40383882728429826,0.09853132548147894,0.08778397646991445,0.8431188883733265,0.35136639124193336,0.0,0.05539985546314151,0.0454086505487096,0.050567180872681,0.1791505419780444,0.37198671652333337,0.4058036907527273,0.3172583284197731,0.238584738414371,0.012074155352517477,0.004326311018122283,0.0005736611786370855,0.07145455505228224,0.1646766354285351,0.7804225398657393,-0.5587530986633338,-0.6911080740593345,-0.3543762795180607,-0.6699348918129147,-0.3524309640609284,0.7713932759685581,-0.8135109864325135,-0.7370861060692088,0.3063074286238757,-0.267447658067809,-0.6189941393334457,-0.5132879160374113,0.0204236475695224,-0.4022257910010684,-0.637748133173006,-1.1311622763154674,0.0769248464344411,0.6030783932432902,-0.6189941393334477,-0.5132879160374136,0.0204236475695216,-0.4022257910010619,0.1119266918062734,0.196106981376545,0.1948940831690256,1.0544085854936402,0.3309420004013155,-0.8796071021738229,0.1306281036373343,-1.961956358870793,-0.6048441256070296,-0.673939162690877,-0.6191467440743962,-0.6683925524663109,-0.649439589144716,-0.6146113498258029,-1.7850182123480838,0.725757198200107,1.740807888460582,0.4461755581540442,-0.9304386103126406,-0.6204587771535914,-0.6865239928318118,-1.176682675385974,-0.48063210741945,-0.7288737803017983,-0.6292419991437375,-0.745477894598773,1
0.4953787037798991,0.04639745422826837,0.33039486669280593,0.16161749307912437,0.04632860843416266,0.18918413025918612,0.05525019195065455,0.32533733133433274,0.1401098901098901,0.19681856913931117,0.12367688022284123,0.3235594370445381,0.5763618318956395,0.1513140430050438,0.6459998074038371,0.126903837396929,0.010531027364875666,0.00666227371938345,0.20138959721454466,0.8690043201124712,0.12389210898474035,0.3222639480331847,0.04632860843664182,0.20427205496496986,0.1413776448324388,0.017294327844294043,0.31837339466401005,0.36218845224997076,0.3075627704266035,0.3422258473250228,0.32857005606796474,0.6314307091505749,0.16666666772916663,0.5767972726461736,0.6258597636286605,0.5247644734059582,0.514625585011161,0.4832300506873066,0.5167699493126935,0.04262586167250963,0.056089931989147336,0.7354754779713061,0.2645245220286938,0.21885845705949092,0.15903618792723326,0.7196671279708586,0.2803328720291412,0.18422322103991093,0.13671681761270474,0.8037418420187337,0.26798665985306147,0.0,0.0784960034051515,0.06380157726892201,0.0700478485011829,0.1269488477716085,0.3906738957636373,0.4261897044694225,0.2152652071647377,0.22448298255906185,0.041378892635765316,0.01809894162252118,0.003821291630901389,0.053779658877169303,0.18163766419573366,-0.8366620683091711,0.799685308723281,1.655739376430536,0.4507667526725366,1.460511403750129,-0.1018102484166785,-0.8355615544469059,-1.0862260281596576,-1.248504083792383,-0.1418342335130388,-1.260036904505039,-0.7719880650737454,-0.4840306756194353,1.470014127795305,-0.3579177601271075,-1.217863270118268,0.4476872312277315,0.9867570176798106,0.4320906297714353,-0.771988065073748,-0.4840306756194337,1.470014127795305,-0.3579177601271129,1.3457527051673333,-0.2817256601228154,-0.4821583057933524,-0.1688188557815703,-0.3971304004815786,-0.4757996914512063,-0.8138232304712729,-0.5822327301345355,0.0029737041732256,-0.2705639140844115,-0.9464411378697396,-0.4339877166116778,1.5110091488299675,-0.0765599199824998,-0.2879476077188816,-0.4622126845688721,0.2686770046776975,0.5685390325962233,0.6129030369532131,-0.4530530927098602,1.5699810044473428,0.9634843352407672,-0.8232651136953232,-0.7077134855306969,-1.162065713788117,-0.8133951478490875,2
0.5489217057959102,0.04188063319473587,0.2848143951716101,0.17499157820840483,0.04181014287747101,0.2142424036926303,0.053124934925888136,0.28185907046476755,0.20879120879120883,0.30450377081093866,0.1988857938718663,0.33829092605811023,0.5426300784256214,0.10034510220334486,0.6358851232414904,0.05971422973686651,0.005267664859121974,0.0012146488348289937,0.17602811775291327,0.8540515326638408,0.1437953897260645,0.23377270458104205,0.04181014288276647,0.22267577991418352,0.11486224335813751,0.017350242649634952,0.37211784556126803,0.362654686022011,0.38084360728408606,0.531288538071854,0.5056549989300382,0.7126006587800109,0.07456140292160088,0.5738999129511688,0.6198380915279758,0.5273503452111572,0.3803102790161983,0.426243456205162,0.5737565437948379,0.036030812015797664,0.05393571746706482,0.5941307316536157,0.40586926834638415,0.21432910390516885,0.19866397783438824,0.5842656427624794,0.41573435723752056,0.17957744283823876,0.1689085325978547,0.6784007021603253,0.21674119308554207,0.0,0.14298750419817297,0.05954989301038967,0.1161647775438791,0.41145285111184854,0.35706873359150504,0.3895295275543691,0.43063116148518604,0.32084763340599387,0.10123024114492185,0.0926192976208626,0.012547715096219984,0.17391443660429895,0.16690657812040294,1.1949861253646563,-1.0760220706170611,-0.6229371231336845,1.8939501946852384,0.0231661195123818,-0.2854291483726179,1.2470494246266604,0.7232734945011103,0.8511177501930203,-0.0864193624464538,0.5769724689737187,1.2528899437602128,1.5014798481499525,0.597297912790655,1.3207726106567252,0.6490839831120245,-0.0342016765080224,-0.6319612167014034,0.6582751897594658,1.252889943760209,1.5014798481499518,0.5972979127906546,1.3207726106567197,-0.8954215254249017,-0.4397875375367522,-0.4444216653193791,-0.2245367335435702,-0.52215293396652,0.4724218309380195,0.6094427407849842,-0.048548941897195,-1.326341739256504,0.2215346956498956,0.1737519273213513,-0.0740644286514843,-0.4856959665178947,-0.2822651130556556,0.5042728252869358,-0.2682180073276996,-0.4216655532876293,0.8571374960507983,0.2510488740133454,-0.0691467197051314,-0.0514424527314231,0.3669436989889236,0.8522641572646821,0.4420600692290446,1.9573507040968496,2.367089935333096,2
0.6430671131986878,0.018514063176617662,0.21199070214306148,0.1861265814547896,0.018533670095928243,0.24561285281113537,0.02897265337654374,0.17991004497751117,0.25824175824175827,0.4195258436215051,0.215041782729805,0.17247746007036965,0.3246454792277327,0.10379612423679321,0.6558424274214023,0.02540735308984065,0.00022994705661958303,0.0003709612027833035,0.3362300745199467,0.9322089735592792,0.06616799908284891,0.022361507255489244,0.018533670108524705,0.23927192458839314,0.04318045031550109,0.011759288676820228,0.6302000903677442,0.3077469284853498,0.6583090662669125,0.360312326945732,0.3631970000269966,0.648079471987774,0.16346153872716346,0.6328812759041575,0.6670111880791703,0.5967243674696974,0.4572258816739865,0.4799293104957256,0.5200706895042744,0.018212224276568937,0.023522098003834098,0.6727125240841626,0.3272874759158375,0.24395549232606173,0.19971194174005727,0.6640077807990186,0.33599221920098127,0.20206582883156565,0.1669110955440273,0.4931354480240781,0.10793686514363432,0.0,0.09000447616885723,0.058931463398752895,0.08002387503346073,0.3961561870005335,0.6970404950397,0.818900721445242,0.48922139188610453,0.42187678603821,0.0423797311647746,0.02054854282001781,0.005085141655783822,0.25743378323427585,0.5268987362442081,-1.6621412882089643,2.1371720768739184,0.3126063757161778,-1.984190383688241,-0.1450104952772781,0.4392930225851197,-1.6869043895261229,-2.17320076684176,-0.8587106577778794,2.840053488834426,-0.3077266419812038,-2.296671670678069,-2.1263196777776323,-0.6795996622627763,-1.9151135648235984,0.9216795094488566,1.0342842698168069,-0.9207337927932142,0.4828657096669387,-2.296671670678066,-2.1263196777776314,-0.6795996622627776,-1.915113564823599,1.7307885623188426,-0.2932364528885529,-0.485764278590495,-0.8810287959498045,-0.4927358672641808,2.5281107016253723,-1.6261075503479148,-0.5855334831961927,0.7686603214438676,-0.6080913519857748,-1.824993487603604,-0.9577192754772074,1.3080247747422191,-0.6030366534379109,-0.1970533127086697,-0.2301749067944599,0.4298062459880019,0.5107981162432651,0.8734075927661822,-0.977211459918674,1.2235250731058835,-0.2321887017423726,0.452204350823155,-1.601789167890917,-0.298186978104439,-1.008697406354666,2
0.46027649941161264,0.15280340589124197,0.3648584944320893,0.2715745144557027,0.15266304632983185,0.3037932907278421,0.17165283404534604,0.3654422788605697,0.1785714285714286,0.23814773661872013,0.1646239554317549,0.33696713416261875,0.5095221485704454,0.2758162994425272,0.5718194253626161,0.08655116772773129,0.028657229387659144,0.014234145614768145,0.05180738050107696,0.5928498653173954,0.3913514963514132,0.4632993144136921,0.15266304630574548,0.322112547708164,0.2952150278404988,0.06412005785861288,0.1551242827034272,0.5608764486918769,0.2534715310490767,0.5335058035750023,0.5007047214489263,0.6993388595170713,0.17708333273567706,0.8276110324617885,0.8057307627507859,0.8551401138694277,0.48907956314517254,0.6105689116421531,0.389431088357847,0.14975214983704246,0.16193189663485338,0.9742854428158254,0.02571455718417459,0.38727996296946815,0.19220892767926442,0.9310914595688624,0.06890854043113753,0.34081035216190664,0.18310123557277166,0.6206938792747845,0.14076315603387318,0.0,0.15658417319671783,0.0,0.10702730409609115,0.4059580337315029,0.5759496146118966,0.5834294797367265,0.373598921611022,0.39723561796630236,0.19167212749725562,0.21571020860476428,0.035968741146774987,0.1995125177438332,0.2880222720065031,-1.674829738740612,1.6898985711059722,1.973459141484995,-0.0285573333786203,1.7912169111909904,3.1617718625784934,-1.5226312379811449,0.0498403469543457,-0.9137182390383576,-1.1878479785260834,-0.9838381576703316,0.1206993082481529,-0.7452019868792558,-1.725878920644354,-0.8324368498027128,0.5542018062656995,0.6358136794196313,0.0785755480953726,0.6011936697015461,0.1206993082481557,-0.7452019868792573,-1.725878920644356,-0.8324368498027233,-0.7910688067066074,-0.5590472212173053,-0.5023240691528824,-0.3229555757143719,-0.5809870673711983,-0.2434780383924698,-1.0729278192016554,0.7073116256233098,0.598747128985671,-0.5424140193996738,-0.0676274908882077,-0.0532792702727314,-0.5658459091903176,-0.1659032835641318,0.2200942664385099,-0.6639941189303437,0.0276611091734129,0.6960103053315508,1.546983064627476,-0.1882602777984768,1.0754857475018065,0.6175997155466568,-0.168161107957766,1.4046842347466262,0.1322069140074488,0.8138972526123855,0
0.3971753693072857,0.05037445042596746,0.4237106323448573,0.08775228672660933,0.050339689676436775,0.09406466742471845,0.053532428319068966,0.3995502248875563,0.05219780219780222,0.06779255186366534,0.045682451253481894,0.238215058198594,0.5294865123188438,0.11335280063711178,0.7466063348010892,0.2827209336931281,0.038902907214243165,0.006743947255883518,0.128363141103335,0.8016854771159537,0.1958379380660664,0.5081450191463982,0.050339689685055374,0.10409210483356217,0.28694557712308677,0.01095953482152116,0.1604496191837647,0.29811175672079826,0.09288889236668291,0.7448051958324221,0.7329971775789631,0.8850040436320599,0.07456140292160088,0.7463994962359384,0.7509224190433816,0.7449660929422581,0.4027422060414825,0.3901150133808766,0.6098849866191234,0.04121680908973237,0.06650399649182587,0.875843260253758,0.12415673974624197,0.12926984157529942,0.060114750769841824,0.8163029958026102,0.1836970041973897,0.1113019083239192,0.06031224313257962,0.9063801126582929,0.33612673907167295,0.0,0.044835841565543474,0.04262117156290582,0.044822083134394175,0.24508926384504992,0.07785534994174158,0.12739966354103166,0.5469616649980849,0.5282071644723203,0.0028355418376374477,0.0014754394317187552,3.3529388103745874e-05,0.1143113742651412,0.059512472324682944,0.4191669460559554,-0.5155195791407684,-0.8824376828493754,-0.4815147486466238,-0.8076765595231027,-0.3681212626714821,0.4054635761853198,0.3372209937249122,-0.1210786538259861,-0.6216615679398706,-0.1653116631445577,1.5426088085441043,0.8861186321664397,-0.308623994830873,0.9646701253120202,0.9503632166928098,-0.3804574583314921,-0.5786130938372297,0.4735821415108555,1.5426088085441108,0.8861186321664429,-0.308623994830874,0.9646701253120304,-0.3464918446488667,-0.2706556224988783,-0.525029902310715,-1.0078935358481445,-0.5074444006153505,-1.354671267279666,2.130700951635885,1.3854763322999022,0.915923575777426,2.8139712546505,0.7098688465600648,-0.1395581253677006,-0.7488021669075815,-0.3155930506217898,1.9683523433935104,1.3077773778987525,-1.8524015578534552,0.4024590298292866,-1.0308729421232412,-0.0357059904907481,-0.4118493707253772,-0.505068137385792,-1.55261312901907,0.1239153196425922,-0.8829229341666589,-0.6409266952370395,1
0.3937051126594029,0.06843907666546047,0.4271417743461562,0.13109337499222723,0.06867107721029349,0.13928538292234047,0.07255237051492414,0.41041979010494745,0.08516483516483518,0.10828312950762997,0.07883008356545962,0.2760727055962307,0.30696721304588737,0.11388372710379613,0.4021719456795201,0.22626070967524534,0.027336801227310022,0.009054409929933907,0.1453560259398855,0.8213600103498623,0.17372325063352817,0.456433051760717,0.06867107721969795,0.15889451987436815,0.26434879558609803,0.01889129882144941,0.1762933638776715,0.37500195751775256,0.14648544267186514,0.8067045462278192,0.7825127144542191,0.9134221843134129,0.3863636369914772,0.5252799688347141,0.5921614271253433,0.4518505670705282,0.43060071779214315,0.3693085315288325,0.6306914684711676,0.05472459291279186,0.09090680841745302,0.6367791255868271,0.36322087441317275,0.15979770385232905,0.13510747940164256,0.6081132630816478,0.391886736918352,0.13857251846048907,0.12341814998287218,0.5919862433443506,0.2803408595106983,0.0,0.15086677345486457,0.04465211274421614,0.09018777229714531,0.41154444978375787,0.41666666666666674,0.5454545454545454,0.3866760492429322,0.3836778341974697,0.16991131815849075,0.1570421251917992,0.008263592675724664,0.42179410194903466,0.5454545454545454,-0.5680295551287134,0.0083971232952112,-0.4446196305926287,-0.8393667000851223,-0.9096493203563852,-0.1022343105412881,-0.646684400871954,1.8562803414313405,2.673889238078423,0.5358171915805059,2.6268850431375634,0.6846168586359784,1.533409086423851,1.5123549271424817,1.2136955481179648,-0.0321988361367077,0.7610527131634743,0.4183751863815513,-2.7554893943469025,0.6846168586359849,1.5334090864238512,1.5123549271424817,1.2136955481179694,-0.918258134883543,-0.6484919839777193,-0.6252382930370196,-1.224557676274255,-0.7133638675317245,0.0591574821067344,0.1831693938584817,-0.086989652183387,0.610199729119712,-0.239564735026991,1.1459989476848618,0.8609549234767836,-0.204889359444446,0.355879636613469,-0.0560563890578459,1.1348705255395457,0.1635124302949905,-0.2871505431849286,0.7610035595993577,0.9057338473811712,0.3000464199344079,1.938708727071461,0.8597571494277036,0.3657805856273269,0.0898156023345475,0.0998254842549228,3
0.4357312912395357,0.02502894790755869,0.385334283143712,0.06467291866847467,0.025190052744129113,0.07352823489647095,0.028167939970489497,0.348575712143928,0.1002747252747253,0.1382950178711021,0.07827298050139278,0.20285777638717706,0.41978650397152073,0.04194319086806477,0.6525892408333436,0.07366850231988913,0.013346033936808456,0.0009859629326288066,0.09469519088715857,0.7436494444314778,0.255755744836356,0.3545562679444585,0.025190052754690974,0.07827666085668426,0.213740963647227,0.005565503231976577,0.22052144983102054,0.21164393056741315,0.10171134292806072,0.7602537010308118,0.7758819388820181,0.8366753317916324,0.27717391404823366,0.5896874515012547,0.6367442316955982,0.5376426167315573,0.3231806918698541,0.45581289094040633,0.5441871090595937,0.023175989926185473,0.03241033752810004,0.7109384239275955,0.28906157607240446,0.08794726384245774,0.05719018330881118,0.6890716651943902,0.3109283348056095,0.07449043718021217,0.05083760194303998,0.3062150909539257,0.374494769206818,0.0,0.11342995801117,0.052034197685359704,0.08680967358692956,0.43267900595476017,0.3492956877924752,0.3810498412281548,0.6120461536598261,0.5831960465138025,0.07497906158599743,0.07626362905203152,0.007054735853005218,0.46432141935501015,0.3992971991250053,0.5334770959631412,-0.545252328127707,-0.5690843519652337,0.1299336643384383,-0.6385586577103662,-0.7315425034618749,0.5909106625524931,0.0382030709183631,0.1520791136425427,-0.4041527509975257,-0.2717632634871013,-0.6372085123018854,-0.7936631749130882,-0.9980620694382386,-0.9195814722869288,-1.9919959802864715,2.0207222446171045,2.4369428209847466,-0.9939029320990828,-0.6372085123018851,-0.7936631749130885,-0.9980620694382402,-0.919581472286929,1.4217331143118976,3.070401227050201,2.882911295987029,0.4832309413095991,2.897581070180407,0.3675108127098373,0.3607276587229249,-1.4661228459905753,-0.4621250563801457,-0.6745133386569578,-0.5989154694375316,-0.8142752033838877,-1.5691322362306688,-0.8796582522548153,-1.2651618218114715,1.9650184038153424,1.3175426729233048,-3.032427158351862,-0.5323026073486841,-0.7067181713877582,-0.23252974082052,-1.3391980804134012,-0.2717600934852662,-1.0416392204794669,-0.0120480505925046,-0.8584211150889266,3
0.4471788575146256,0.022198439429110962,0.3743060312723493,0.07590614810096595,0.022169161621267686,0.08696252506972435,0.025536922539477064,0.34707646176911544,0.07142857142857144,0.10007204199968503,0.06462395543175489,0.2067281691791969,0.49320069325403815,0.0682240509689408,0.7056812467309133,0.05584827069180379,0.01459124484890885,0.0009859629326288066,0.06612318700009365,0.6626996619027311,0.3367101378793885,0.3669224216822018,0.02216916162455429,0.09628574607540867,0.16753485323204814,0.0060018574075785015,0.2764875980890623,0.2206389196107017,0.1487624242030758,0.5766720073886585,0.5603732499891464,0.7610238855181168,0.0,0.620701600327791,0.6560012233444672,0.5849995976623381,0.16177115853931157,0.4085547919817415,0.5914452080182584,0.01896214669772826,0.030653371923433044,0.7163925226450333,0.2836074773549667,0.10663513378827277,0.07178105288180495,0.6948890745961415,0.3051109254038585,0.08892605833710199,0.062252855069354913,0.8049857619914731,0.31766232502679126,0.0,0.33275178030075925,0.2653797679611149,0.2715268355670243,0.1489860643921192,0.27006027664541304,0.2577848095251671,0.6826061571584806,0.7576118012041545,0.20129754328831936,0.19030978964927128,0.0429735571980355,0.059301607945946896,0.10442615546302757,0.2142946276430643,-0.4128890411434871,-0.6562920103758236,-0.2083483025927575,-0.5903166452008752,0.2484384061000436,0.2017304000462272,0.6070593294656026,1.1949042834547523,0.3092568130814979,1.221073218247079,0.1380459746929896,0.3774929941711704,0.1102081640662784,0.131498371221935,-0.2838244200105718,-0.9388897987029466,-0.0974858479165943,0.4685621519067565,0.1380459746929911,0.3774929941711584,0.1102081640662784,0.131498371221938,-0.2077872019377755,-0.1694364032939071,-0.8659180475478592,-1.1132720274342778,-0.7587443335885055,-0.4092114197953818,1.2411756675040952,0.8026050520599387,-1.142332190619583,0.1934445303716093,0.3003636398441223,-0.4871240450943926,-0.8160395076735768,-0.6921660567879783,0.3515574582269449,0.8428097165550112,-0.1372743536909489,0.5531220757389275,-0.2540708347982942,-0.4742015716171032,-0.2144903520679502,-0.5207867731122798,-1.2239604822546124,1.2556211615581798,-1.0631931125230203,0.0609859949916666,1
0.5365282034032819,0.01757302570358594,0.29477756693164137,0.011754444071252937,0.017630716229715012,0.021804483830319486,0.023782681306385098,0.26761619190404795,0.0,0.010986311031422571,0.007799442896935939,0.1971976387250072,0.3905447269677116,0.010883992567029467,0.7127601809567732,0.12798437880677868,0.05382972154288814,0.005420835964582435,0.039788269300689134,0.5339229925635126,0.46373669166612097,0.5563400307822031,0.01763071624985231,0.009475640949003244,0.38597400461442016,0.0015285139036562492,0.10901088930384553,0.08977825098996917,0.006951876938532282,0.692118827706048,0.695179926982593,0.9076361487337616,0.049418604780886624,0.6118089046036532,0.6503067307221793,0.5716911305338512,0.551525394166505,0.4756936731545107,0.5243063268454894,0.01730053172002269,0.022620609456904917,0.5512422329719168,0.44875776702808323,0.01095226096211871,0.00685708651199167,0.5460532412561344,0.45394675874386553,0.012412310566046962,0.009502366810419334,0.5576311861812568,0.5390315653273792,0.0,0.28672572529412754,0.19127946014639058,0.2146000475067426,0.3071020081547127,0.3816762041010968,0.41637404083756013,0.6291651149418501,0.6246114642080893,0.12456851822176122,0.1280731886530619,0.021898036573816438,0.24083310283527481,0.3178401267862301,0.688049171891143,-0.7362538570969905,-0.5277884434887274,-0.8458173786360155,-0.9807705031754416,-0.6236054940996045,0.9518611581696867,-0.4400998231279225,-0.0404403428621671,1.197776747647138,0.3195874840415537,0.9195792482487722,0.353367536625038,1.3307629385160862,0.6074968695006966,1.3148485145562396,0.4604146858141947,-1.464792480117675,0.3563150259820138,0.919579248248758,0.3533675366250357,1.3307629385160862,0.6074968695006978,-0.7800505164409993,1.9948334895100988,1.3961465251464824,-0.9778835482809286,0.1124065679390378,-0.6311941575015475,0.6358004911187968,1.625685517692342,-1.4087102313589512,0.4033314671532522,0.2421897882066017,-0.3644308212024417,-0.5524512763471028,-0.3641771402058544,1.5246343426998763,0.1998464074365952,-0.8348692972126448,-1.009294662808986,-0.3931808320645891,-0.220217184308013,0.4211277585959274,0.0637381243308494,1.1970798686778268,-1.2965509345729251,0.1458764377460701,-1.2578881960993424,0
0.48660972021847426,0.01324077703017925,0.3379344953858666,0.010650918063570394,0.01334056140874922,0.01773252930196182,0.016967801339507232,0.31034482758620696,0.013736263736263743,0.026433365401431735,0.01782729805013928,0.07603778178875618,0.39992067689412003,0.0,0.5830639948823675,0.22682454457321283,0.05925512292869236,0.00853292439938098,0.06625750593984263,0.6614448688544476,0.33545171397974183,0.5706766203624084,0.013340561418919442,0.010190802765602622,0.3396969939694983,0.001231098393937711,0.13005111804283376,0.07578691908545454,0.01290211668313955,0.7545454561433634,0.757738384737865,0.9707659316788331,0.2833333328020833,0.5545580409056146,0.6069350567231875,0.49945525058709395,0.5401716068771494,0.4566006293342272,0.5433993706657728,0.01305845079497835,0.01821486676315641,0.6567584647103905,0.34324153528960943,0.016699372301116136,0.0025880112393574517,0.6310682454100128,0.368931754589987,0.01557492422376041,0.005226493505696962,0.4609539974681007,0.5092645510309991,0.0,0.3237045904884562,0.25279205412634315,0.2632541710505586,0.34127824984498806,0.33631582432991014,0.4586124877226047,0.6362274129572499,0.6637461010915209,0.21781553844405194,0.13783625964054824,0.10770954919222511,0.3560141477539149,0.46271591056925576,0.3786413367981502,-0.4841049802170889,0.973672158933819,1.4052091911648128,0.8412780496461075,-0.6396034217651376,0.2218708971136508,-0.1823111598569733,-0.3562251666150317,-0.6817465421084824,-0.8184759980908359,0.6654204600441387,-0.3358169589923545,-0.766599326677257,-0.503893617162363,1.5830471267740749,0.4444223573832129,-2.0873457591159474,0.6662100011053042,0.665420460044148,-0.3358169589923557,-0.766599326677257,-0.5038936171623634,-0.6310461062495939,-1.2830026551930456,-0.7875288900805419,-0.4740890248501978,-1.0510014102300038,-0.1158622692191971,-0.0577332103276047,1.841393249535987,0.7843105201404632,0.2083495765666579,-0.2550784755747808,-0.3039127368466721,-0.1422080717806746,-0.2956096728989181,0.738209473511442,1.9298438345065112,-0.9571992810684088,0.2431944000640692,-0.2230135271937211,-0.2512910044249455,0.7462180975183504,0.1700269246266279,1.105633153800745,-1.5022780244160638,0.4140751208745376,-1.345799918000721,0
0.4873162937711355,0.029238911113737463,0.3377676870377465,0.14989534067629817,0.029275761218414197,0.17453537299649435,0.035199787101473236,0.3193403298350824,0.1675824175824176,0.23578834185060843,0.14818941504178273,0.21224307798207426,0.4610036561344011,0.09211574196973721,0.6897220425688838,0.05098611466058407,0.0030940539723118147,0.000448551062458367,0.22668925929235936,0.890063300218141,0.10921385380910043,0.1740363888415002,0.0292757612381224,0.19099451135642426,0.09968001776497738,0.012230667827313016,0.40990293152756363,0.3131679980029791,0.3668507551612459,0.4638848930572289,0.4600546289856665,0.7042043903218498,0.0,0.7411591461611575,0.7479887490812749,0.7359703978347807,0.5994682123729107,0.6411004997074229,0.358899500292577,0.03332513366739269,0.02825896564810495,0.6083362595457542,0.3916637404542458,0.18659250203984717,0.16777061388391049,0.6063952270446226,0.39360477295537727,0.15645556749362347,0.14075123328653014,0.5786295513926052,0.2098715338227189,0.0,0.4197480977054967,0.28638601622551835,0.40483204348739493,0.5693569620449197,0.5656560302484188,0.6170793057255477,0.5838757547176341,0.5660493645496815,0.20600733354350054,0.1877366725982062,0.02443652931020688,0.3877540615973931,0.41886555651019636,-1.4121944980859875,1.6125067162530584,1.1094995027684444,-0.2502576835086297,0.4985370697271311,-0.8914923612832375,-1.2921618411119058,-0.5883226298224074,-0.3421151876501376,0.1037356250885079,-0.4399516014078529,-0.3637434513580431,-0.2855705323197431,-0.0548053415333278,-0.4453704037797883,-1.2637775152674078,0.8845578752666068,1.4890391153253633,0.2909969616758311,-0.3637434513580347,-0.2855705323197432,-0.0548053415333278,-0.4453704037797865,-1.0035839021934672,-1.0135914652174454,-1.547767464099714,-0.9594369772590112,-1.2870552029019833,0.1943614785957612,-1.2201849391624982,-1.4715053460200989,-0.4006758874539604,-1.0328028412903598,-1.16177876233984,-0.8547007351038555,-0.6666915522879011,-0.8653186898886781,1.314268677234689,0.9161125243864467,-1.7043409484681318,0.0222590592495799,-0.3050213733650171,-0.8755525440032282,-0.3549555687694561,-0.8400125474218597,1.4223197327533263,-0.8525292227958337,1.1055115676897165,-0.3179466886164072,3
0.41624729458301735,0.02897777473451995,0.4044489985205145,0.08069896010396578,0.028947604565997497,0.08875214322548161,0.03158956976458579,0.38305847076461774,0.0631868131868132,0.08404953745121202,0.06350974930362119,0.23333638951840355,0.49198501599157096,0.07061322006902043,0.8013574660198359,0.055074976300123486,0.010255317633067125,0.0007066394377985781,0.0913672489008576,0.7361777689467554,0.26337049563755877,0.3187019236844141,0.028947604568647776,0.10136271808298218,0.1921195447849724,0.007329920868478406,0.24437239868308272,0.24528821086410701,0.13687580513862166,0.6608062536573712,0.630217808293004,0.9045020463600411,0.08388157855242598,0.6399051387973027,0.669371637551778,0.6113524406148878,0.3740630557194238,0.4583365029395654,0.5416634970604346,0.026479966096947565,0.03677872680310782,0.6123127530523126,0.3876872469476874,0.10163154933667876,0.08663491880028665,0.6004409487625818,0.39955905123741814,0.08615832120237785,0.07518449144900766,0.8552801980149731,0.34098597270334546,0.0,0.4312219902798228,0.2030665182085758,0.28482244512578214,0.26869957977367365,0.4058036907527273,0.4426949353666116,0.34793413217339875,0.2417892894796286,0.18683694025644434,0.16245527137877702,0.041241247415265,0.10716093075577007,0.179647238649311,-1.0183056910200796,1.0431894407820983,0.6264381709047755,0.9023024790656246,1.248400161963238,0.069951722929684,-1.0066994239992375,-0.9923286231823908,-0.5712665160710266,1.6909215405011475,-0.0464854522242258,-1.4425895342693318,-0.9381834141383794,0.561982305668844,-0.6882968507340689,-0.4345571337178593,-0.5621941996023794,0.5648430842953405,0.5101728339578644,-1.442589534269327,-0.9381834141383798,0.561982305668844,-0.6882968507340699,-0.0314293251411844,-0.2707863271418502,0.961387306506056,1.5312792755721591,1.1521673213751378,0.2733336335254438,-1.2308317469061545,-1.5830764870824068,-0.4375550688265912,-1.200717364725398,-1.2192517623477326,-0.9020544529604072,-0.4550332577485988,-0.7078524632948008,-0.1618972110145815,0.1899432559028191,-0.264836098195767,0.8153114402823041,-0.1899287706644747,-1.0313743385513363,-0.5521241041457985,-1.0718598627741074,-0.3367909638327978,0.4078695818269908,-0.9019557969940852,-0.0566488096994269,1
0.6330130559607987,0.026366443312305296,0.21921807681606575,0.17243260006195515,0.026267307287338008,0.22669808944941844,0.03845383533822729,0.18740629685157428,0.18818681318681324,0.30802891131359944,0.16016713091922008,0.2901483030463537,0.4546627251328482,0.1053889036368463,0.8580047404059001,0.021238560466965848,0.0025651109603339294,0.0002427337504781986,0.11875075631503527,0.7889684199079048,0.21061997863069165,0.1551381962910956,0.02626730730237762,0.22008590300327235,0.07310472350654358,0.012993881785905168,0.49369931914543874,0.321577057444848,0.48930382998283384,0.33425484446259934,0.3258085360735581,0.5702592079244132,0.0,0.5110690002769052,0.5828332015842816,0.4274351088025923,0.6298993693759845,0.45553788305067033,0.5444621169493298,0.024129462286598787,0.03376863309834683,0.5259947861784091,0.4740052138215908,0.20000111496931428,0.20722623516832436,0.5205145892044966,0.4794854107955034,0.1662936307964497,0.17398242930523145,0.8162164873052933,0.24179037138012605,0.0,0.3718996435033997,0.2698859794014755,0.30780539101131127,0.4090917569416667,0.42618970446942256,0.46493422305755183,0.45035199479957166,0.36844468494557797,0.15027079576103833,0.1282461118846844,0.03849243531802226,0.1719316237166149,0.19815017912261856,1.0193068512660868,-1.1106924414044044,-0.2129458591874229,2.3241967413302858,1.1560997035412888,-0.2092277990766781,0.9862730183703172,1.9086982424654173,1.954011921661745,-0.008779109581817,2.197267714955825,1.867825743998321,2.4422683825323173,0.3920369619801833,2.2996325323799267,0.0072854581056024,1.886660003750048,0.0167061448228485,0.5335684862830359,1.8678257439983408,2.4422683825323177,0.3920369619801833,2.2996325323799227,0.6719515090591726,-0.6646398286776194,-0.0453061332403585,1.0700913571264847,0.0955455827481821,-0.6550762386066443,0.8109470116131371,-0.1278622883231221,-0.4567033531525015,0.0239723550407605,1.55591360821962,0.9331951409422928,0.5738443937930725,0.8760653360201517,-1.1649501443873245,-1.2407167591374584,1.2324387627296949,-0.0789890052555533,0.2531221940143169,0.9809709401018352,-0.4501301668875853,1.1903764856686236,-2.205254923345442,1.2231417642068714,-0.4791244579678523,0.494060921444662,2
0.6679480120139132,0.0634173554191154,0.19438163894880967,0.18882559163415502,0.06331587689994779,0.25381140897254206,0.08753954461385949,0.19715142428785615,0.20054945054945056,0.3232517743815011,0.17827298050139279,0.23814207966045547,0.3575054315927094,0.2097159543403239,0.6734096352756519,0.11798151901670934,0.02725592965867713,0.015154116329904897,0.07511352576532922,0.6828900317092661,0.30295620671809276,0.45600233766531495,0.0633158769062856,0.23671621500430828,0.16285134308137394,0.024392396765365816,0.2833331271995977,0.4126809419869817,0.3144034669966629,0.5534501652478828,0.5325279363733605,0.6781004348246085,0.25000000053125,0.5799239031978649,0.6468064345711988,0.5035641450042245,0.5241141072856883,0.23255151878971486,0.7674484812102852,0.04096828985156177,0.09311123865007079,0.62235454095774,0.37764545904226,0.23263115107609633,0.20650506685259476,0.5960542806768351,0.40394571932316486,0.19527110300192618,0.18060866034766687,0.7793698661021147,0.2030853301292091,0.0,0.2797066048245166,0.2861130503263497,0.2785874608027447,0.37993498939825765,0.3927756069506555,0.46743543306524293,0.5394298217338199,0.4959020088057593,0.050825759831605255,0.027649660723131273,0.0056927530404554645,0.1606448110190498,0.20028789374448358,2.0065238266187846,-1.5750924345994497,-1.518656469270387,-0.7481303113870121,-1.5816610722248812,0.6593655677049138,2.0595176295414093,0.2472405630696896,0.1461058593893413,-0.3375796375360259,0.0954611965318927,0.1449998357860122,0.5531843358113965,0.8973038513985683,0.5903914705914716,-0.1678035604429734,0.6783767241315336,0.0409334615463266,0.8510696027605391,0.1449998357860117,0.5531843358114017,0.8973038513985683,0.5903914705914739,-0.0800797739126577,0.7085677568573553,0.5898533314600639,0.96463819196915,0.8992525435123028,0.3925161153232104,1.1443500688332675,-0.1076450899676718,0.1870483856215158,1.580127203084425,1.0170013594129474,0.4547205144857011,0.558884786302062,0.5822978357527008,1.0086059548168558,0.1467047594234909,-1.01408800176934,0.5871887432055548,0.6162377095739178,0.5440524042089344,0.4890439946149159,1.4349073297577906,0.04255206585537,-0.1960434425999106,-0.6881041389752913,-0.2010821726803149,2
0.7001359289874702,0.019466414534872037,0.17153099379648407,0.14459335590817385,0.019392963597436353,0.2030477234378713,0.03243530094344357,0.14167916041979012,0.1153846153846154,0.20878275318284367,0.10139275766016714,0.152446206011244,0.42718498399502636,0.08893018316963103,0.7867464602830725,0.037443926196541834,0.002149212107070239,0.00044936779782336764,0.2171401097342382,0.8842379369387713,0.11466601666037532,0.13844589940552687,0.019392963598959333,0.18433136154468338,0.07290995559510284,0.009532892691831593,0.49441868827320656,0.27935344938158413,0.42497839300462703,0.29849381477125925,0.2859938698475246,0.5220011808315961,0.15937500009960934,0.46718975517632577,0.5548070361431441,0.36229488167361446,0.5986504522301788,0.48061184572979576,0.5193881542702043,0.019059128947860476,0.02461094487947977,0.6269625235967067,0.37303747640329343,0.18299841186685167,0.15905472148087973,0.6188495858688717,0.3811504141311282,0.15168979366469187,0.13319295712345658,0.7155952183016325,0.24357246161022722,0.0,0.302202750020232,0.31403756539773164,0.3155541696402962,0.49081249808474625,0.5898034958028231,0.6434219954212614,0.5409816855939507,0.5204798486883732,0.07823954930890285,0.066625925465734,0.004654058392655193,0.31727691763949034,0.4139918641918778,-0.5968130533163036,0.5568143284823631,-0.057883084475642,-0.3657990661981576,-0.2313241172978987,0.4648809568690211,-0.649031976077735,-1.2412293391271445,-1.2441258518238372,1.2566873176917477,-0.9305391418456664,-1.1196104445502764,-1.23446386075736,-2.0207658037021323,-1.3458188351941331,-0.9812065438628244,1.0073170797496842,1.0230158098603754,0.6540106491534708,-1.11961044455027,-1.2344638607573586,-2.020765803702133,-1.3458188351941345,0.7865063448292118,-0.1083698668994289,0.194187708314604,0.8944476384472223,0.4271449581683438,2.510759384249911,-0.9682646625769924,-0.4824311257925304,0.7928131110374307,-1.2382699069238872,-1.5285737904124252,-1.1732654851917743,-1.5763963820894331,-1.1462503514338405,-0.3937740361961733,-1.764588763706376,0.2231381408276538,0.4002026567447087,-0.04506919337851,-1.1653033094402891,-0.162283433976605,-1.1569631822131654,0.1769738174647546,-1.1396947384880876,-1.231270015137137,-1.3033673962574084,2
0.4366758827580117,0.02280834160441575,0.38446779658583397,0.03619996187798484,0.022807931065078394,0.04268625691348805,0.025766650946264368,0.3553223388305847,0.03846153846153848,0.05511996174369124,0.031197771587743735,0.2312083239210286,0.448334071754248,0.05229625696840987,0.7846686186180272,0.1927132071904486,0.04212056758758083,0.002415249821379976,0.07977681933786626,0.706495118421875,0.2931644119141672,0.5198921566088138,0.022807931081699366,0.04289659635255934,0.2874504054165513,0.003530652100770704,0.16011771300378444,0.16146461688098057,0.045835374632393414,0.675601967337455,0.6598207982987218,0.9134221843134129,0.09807692281129807,0.6908334200415793,0.7066133959539631,0.6779709162792762,0.43798751941319614,0.5224464814886094,0.4775535185113907,0.023339285214774134,0.026775347348129433,0.5308055407063331,0.46919445929366677,0.040232276299011716,0.03930038611010586,0.5345430417083804,0.4654569582916194,0.036626424191624145,0.03561119646214624,0.8220703043874187,0.4344788115643229,0.0,0.372975930990173,0.2812398850934916,0.3234882866067104,0.5148968453839846,0.6993673891715888,0.7629462427326423,0.537934299998466,0.4968200458506026,0.24721959725979345,0.24715836964482726,0.03535437934148345,0.2523557275770888,0.37664450954696566,-1.4971967640547663,1.642181833251466,2.092004203955233,-0.4407190557217703,1.2921543296124691,2.8021468203177906,-1.4955399654039427,1.4059465705473284,0.0295265901028691,-1.3256700701916115,-0.547034160995802,0.4908879924324839,-0.1694718526541901,0.118725930792829,-0.1078134124383419,0.2641604906622404,-0.6177392928755671,-0.1407574205590328,-1.537860845464891,0.4908879924324755,-0.169471852654191,0.118725930792829,-0.1078134124383434,-0.635250664901698,-0.8564349377316876,-0.4763115120041419,-0.5005990687620357,-0.7081613780159384,-0.8055434142627799,-1.582143196673097,0.3305186239735523,1.7936478511281722,1.2257776406101355,-0.560512748895015,0.0058883407314932,-0.338844314186276,-0.3140630546779983,-0.4046946307215304,0.0502805416352308,0.2298885663162827,0.7542459159340776,0.5211095832611501,-0.218615284747985,0.8613748559567111,0.0017666046027111,0.4846978171365246,1.6002134627815854,0.4967326634764538,2.081017839674198,0
0.3931345556846053,0.024117817418299832,0.4276767518289363,0.025975928024055628,0.02411504371857159,0.028623839688465318,0.02533886170913053,0.3920539730134932,0.024725274725274735,0.03336241179254476,0.025626740947075212,0.16552837525466194,0.3851288055607158,0.027873639500929116,0.7466063348010892,0.3188410544186142,0.056485766368030536,0.0023989151140799627,0.09944603806005951,0.7543253584008192,0.24572540077937363,0.563526325135485,0.024115043713510323,0.028324256981820617,0.3512619679380828,0.0029508537179788403,0.12437301235056258,0.14376297769899948,0.02326189995941716,0.5877922082944079,0.5669314138939378,0.7932733799783556,0.03320312502075195,0.6564082241840952,0.6814901935791688,0.6328144830716225,0.150215035521839,0.387939021808534,0.612060978191466,0.019811358261438382,0.033875634236020656,0.6785304640987997,0.3214695359012004,0.035699409876665686,0.017130498475413522,0.6358182223035359,0.36418177769646404,0.03216187937789542,0.019974688954950394,0.7677629513652657,0.45992210075338025,0.0,0.35934562256445635,0.28058308805377263,0.285113999464416,0.14200683507374728,0.19463837485435398,0.16986621805470892,0.4764011653229967,0.5046441312918662,0.21658601398729252,0.09039665428823188,0.1679373818189383,0.06699698831976725,0.07934996309957726,-0.3701059375202072,0.1849746147890726,0.1493086231030177,0.0191201170672997,0.4799936367710284,-1.0056736489352778,-0.2705079628700913,0.4468612150327081,0.5543291565366011,0.1259639250846212,0.7030924648914181,0.3770646807685101,0.8082982878249275,1.222549015538037,1.1068464178382418,1.5585844870558472,-1.7542465245943206,-0.7320808157618216,0.7879573913471634,0.3770646807685135,0.8082982878249316,1.222549015538037,1.106846417838247,2.776056626595851,0.6771280269952951,1.0831620739927783,1.2941360714099868,2.0682808500782963,-1.402406025598952,1.275600001382457,-0.236462609530971,-1.21206681598282,-0.951317368196954,1.5323330490297125,1.1103385363047569,1.0557610909787325,0.99566126678419,0.1763834066742197,-0.1044265360294474,0.1549980494110104,0.0310904917897134,2.303085784118694,1.1679289765522487,1.5131828604419413,2.0203717556586334,-0.5853573034431282,0.4238392042725558,-0.0125032701437918,0.5699847314879668,1
0.46875518874822775,0.018401610108386306,0.3545963393178305,0.0616048795302635,0.01844660035975192,0.07333602607350698,0.022141968027105323,0.31784107946026985,0.05769230769230771,0.0858636750238484,0.0467966573816156,0.11296730616460846,0.2791203948462101,0.06318024953543935,0.5429864252555844,0.05864552111846121,0.004982244905881584,0.000475503329503389,0.18095683558708026,0.8595639995389751,0.13994908855672125,0.2271354967695569,0.018446600361462444,0.07276147564392378,0.18703410986453523,0.004384057628418905,0.250536401870484,0.18443107689310723,0.11021893887277509,0.5581818183187818,0.5733446707866728,0.7932733799783556,0.25500000015937496,0.8828846194087632,0.861708072400494,0.9055978049578588,0.2619421080504907,0.6333106323973736,0.3666893676026265,0.022685845908343227,0.01737220128820008,0.7368864720718834,0.2631135279281167,0.08442392954548275,0.050248688382470375,0.7292163929850037,0.2707836070149961,0.07155614743054026,0.04284384088264335,0.3439400334579617,0.20063209248828118,0.0,0.3811750191047852,0.23617884645087706,0.31270066149523795,0.41154444978375787,0.5,0.6363636363636364,0.6121437585279077,0.5898043992442288,0.20138983847748804,0.21779940285552585,0.0305831176075195,0.42179410194903466,0.6363636363636364,0.7021989204472258,-0.7783143870723114,-0.9161860008840352,-0.3985861794593183,-0.8322146863473382,-0.8845912944471251,0.5541890987261542,0.4057601895363925,0.6467219403151183,-0.4751392991219861,-0.0091310709726157,0.1421416150686761,-0.0973381763006195,-0.135829722300229,-0.2521026420803009,-1.5513211119582029,-0.8116234714447124,1.1322222793499044,-1.9135288655460487,0.1421416150686594,-0.0973381763006211,-0.135829722300229,-0.252102642080301,-0.8691292399249917,-0.6498863587503851,-1.5638031497135083,-0.9594369772590112,-1.2139909337416086,1.217278920032969,0.0527196516534105,-0.4540081176892774,1.4780343110295917,1.5119321346495065,-0.4577126710633214,-0.7992850633457903,-0.0889057194259433,-0.5632569436636176,-1.673045791281817,0.2178555171120583,1.532683658937206,0.5990485047443252,0.0777369854062357,-0.7470353144578864,0.3765002545727721,-0.4103990020772671,0.3025106357939542,-0.0504318768046177,2.471607621210881,1.361095648935489,3
0.37323150766125957,0.01706547479244446,0.4483474372951587,0.060739086221918995,0.017121005882303104,0.06330090384426257,0.017092530591848183,0.4220389805097452,0.05082417582417584,0.06339989004376007,0.05682451253481894,0.1853251547784548,0.48578568578462844,0.03132466153437748,0.5606096690012338,0.03024368453086173,0.012642525225398426,0.0005424756294334438,0.04198750534692084,0.549335154377071,0.45086062034192165,0.34710145468137754,0.01712100589721175,0.07539907636903022,0.1749096506586545,0.004319607128798942,0.26621177343159463,0.1828060893526091,0.1203158922110335,0.6327161874383979,0.6519632161268615,0.80870751484833,0.0,0.8826968926870915,0.8535825404678941,0.9179879997879383,0.026728106180242683,0.5203508915692263,0.4796491084307737,0.01826679692346198,0.02047515235669082,0.8338074426526616,0.16619255734733862,0.09466440695610245,0.04324323030484563,0.8110281275752984,0.18897187242470143,0.07905926084274367,0.03766438095372394,0.49514192112520744,0.46072779866568525,0.0,0.3079344750796684,0.2653499233659782,0.2713854136441,0.2785202663436988,0.3492956877924752,0.4763123015351935,0.4365766110343362,0.30581254963434024,0.08441676772355769,0.036360414996613286,0.02611850362024043,0.30559417237361025,0.49912149890625657,-0.1143987906671073,0.0576802079756739,-1.0611707919832538,-1.3931705511243582,-1.300175927014828,0.0094105456856077,-0.2615010325045341,-1.577274535000305,-1.9714266864382268,-1.855427310554741,-1.744864653130768,-1.82002212086226,-1.473766741802199,-1.6555689737478805,-1.3925699001432807,-0.0454357918941642,-0.6770554388753941,0.2557024282709121,-1.667473393161039,-1.8200221208622565,-1.4737667418021978,-1.6555689737478794,-1.3925699001432803,0.0038422502181337,1.635618569542614,1.061898251266137,-0.769874910679541,0.2641554346567389,-0.5689560067428092,-0.1014351364588136,-0.1372113788557223,0.0221893684372262,-0.7238274263397452,0.5351067659201124,2.380630807281088,2.4480798104656394,2.494669934294645,-1.315297499562601,-1.383664498084857,1.5394608021833938,-2.917379619688818,-2.361007724909708,2.2906382306877666,-2.673464195853223,-0.8811658570465545,-0.3804034186065217,0.1268430650312567,-0.2576526192564813,-0.0844119551803633,3
0.6958708666530082,0.7250672603309044,0.20985639602404993,0.7545064819464519,0.7240358802317964,0.9573960825941922,0.9235658919143669,0.41829085457271364,0.30906593406593413,0.38917124611700343,0.7662952646239555,0.6855643164850985,0.7149306431229486,0.37138306344571276,0.22423328299234935,0.9902997232951819,1.0,0.5822245061772964,0.013192498351101608,0.25826330560992905,0.7073630157944751,1.0,0.7240358801499975,0.7663243914614288,0.6536125300592641,0.5790627434195664,0.03916164442840739,0.9119557220304491,0.280430240375957,0.6530594420058994,0.6388520140826092,0.7421555247546481,0.2693661965433538,0.643747526687438,0.7303240155222428,0.5184842449117144,0.13618800582691226,0.3664372962402639,0.6335627037597362,0.5764099182173595,0.9196619136705232,0.8078356388603354,0.19216436113966462,0.8259053854696238,0.5851264034361336,0.6665200773973803,0.33347992260261977,0.8067649710285772,0.6975785595847961,0.5609543241675696,0.0712651724732778,0.0,0.019139913729051217,0.017613170633555678,0.019326461533733547,0.5065526189332054,0.4050904149681196,0.47874321768959593,0.6113631409727928,0.6102990766514206,0.006910442274454121,0.005818855241230536,7.287876220342353e-05,0.20162546701621953,0.19393428871705123,1.7418976942191746,-1.3447740428962889,-1.3184797064628024,-0.2393463752871051,-1.196487638245054,-0.3685654696070484,1.7676090630494752,0.9361155127826668,0.6973134357478497,-0.4326389941065752,1.2513429044280768,0.9951834291329829,0.6342464388716983,-0.2668421811662712,0.8984478510004499,0.746793235910536,-0.7434943269203959,-0.959192253171612,0.8736797513837973,0.9951834291329864,0.6342464388717015,-0.2668421811662895,0.898447851000459,-1.677044023230088,-0.937071505733052,-0.4836828239234374,0.6870712366732574,-0.5130303020390902,-0.2956581041017979,1.695789486142254,1.251521304198605,0.4073952839579636,2.2177457168371104,1.2876234703430551,-0.3602644886675525,-0.9239409119432984,-0.7556857839802131,1.769636312981503,-0.7782609790304962,-1.631442080450406,0.1093807920371089,-0.7638434104342704,-0.0109187221335974,-0.3564932840076145,-0.481213389302362,0.3595309188102227,0.5925939715485936,-0.2991996054408238,0.2286412945259665,1
0.36559297808868263,0.0009376894980962433,0.4563050634804592,0.0,0.0010033314223551679,0.0,0.0,0.4152923538230885,0.0,0.0,0.0,0.0,0.09295662264790516,0.002123705866737456,0.5666550643312224,0.0460708422782537,0.017322598461733337,0.0011411426519789337,0.045962260486782994,0.5720870898566396,0.4272203938746518,0.39098777454814726,0.001003331437986487,0.0,0.2601960552527541,0.0,0.17943179616504487,0.0,0.01742732100077543,0.7334754633902693,0.731494709057383,0.8750789023226446,0.19921875012451168,0.6204265705292684,0.6548736150172898,0.5861999392139268,0.6612275300209705,0.5009946909947235,0.4990053090052766,0.0033339859878679552,0.0023591931840884206,0.5007641364884466,0.49923586351155336,0.0,0.0,0.504179722132412,0.49582027786758803,0.0,0.0,0.5999647294085237,0.6011118750005463,0.0,0.1335744170792083,0.10150367673618575,0.12479403838621217,0.6440012291878493,0.6997397075186776,0.7633524082021937,0.63921691552168,0.6299838448944571,0.123426331005602,0.11191446826393127,0.012786511283419913,0.493526527259739,0.5827068991080884,0.3432621106769865,-0.1602164287349577,-0.0415126601515529,0.011243247772299,-0.0317569829666431,-0.075055258544799,0.2899031076035679,-0.882489682741843,-0.7078030038882127,2.4312481701165014,-0.2725214246319225,-0.7349019907169833,-0.8437123725641653,1.446055503020885,-0.4934014159056006,1.175985680444253,2.261735347701066,-1.446787083560477,0.9626827900832208,-0.7349019907169865,-0.84371237256416,1.4460555030208864,-0.4934014159056005,-1.0972620350192543,-0.7933671949012813,-0.6579946599607946,-0.8839891018956448,-0.7739750710511234,0.6942774174419954,-0.124879647133728,0.3797510276353411,-1.358057285909762,-0.6867145861437436,-1.070095328472328,-1.4040393226582537,-0.5636435554405033,-0.948106829463597,-1.3797106068420906,0.6327940673991812,1.7397883991312684,0.5147968800015815,0.2600979437077048,-1.4257467241433894,0.2075195177532749,-0.5099554285205506,0.1914753794387313,-1.0817981937774666,0.7965718269984241,-0.589802438880147,0
0.4186888088711145,0.0013664914782292002,0.4020053897114829,0.02123714340133047,0.0014403030554347614,0.02527650052913056,0.0017552969767825471,0.3703148425787107,0.021978021978021983,0.03184038094963161,0.03008356545961003,0.002731984311207013,0.04508196715457469,0.009556676400318556,0.43966817487205423,0.036998204505108705,0.00836610568274056,0.00047877027096339175,0.07550427286870408,0.694096355964262,0.30572588183506877,0.29177402239762595,0.0014403030602844064,0.02705542497793366,0.17103675098598436,0.0008010485991187676,0.2715338599175261,0.053138903417739636,0.06883186659639043,0.6367824323573524,0.6525882498572823,0.7699863569503413,0.20238095200148806,0.8173572070546808,0.7950288377969927,0.8513986218231118,0.4617917669448146,0.56346680110778,0.43653319889222,0.004942006412029524,0.0013153409338680366,0.6659369670321449,0.3340630329678551,0.033739226614086085,0.016778687098509618,0.6583921589352142,0.34160784106478564,0.0273005933898643,0.01337899361204515,0.4047245900812692,0.263681125373369,0.0,0.2246149592407019,0.1403047977702102,0.18526371213391118,0.7123537125684,0.6726316486598203,0.7337799803561675,0.5642373492527746,0.5830254861125197,0.19507717865715024,0.21927778216009375,0.03379374835664636,0.7238886170970191,0.7403454569108092,-0.6466569082375911,0.6187589699290234,0.1705817625315797,-1.2023176004242495,-0.282810368310215,-0.5709497667654947,-0.5681197052359902,-0.9857344955738276,-1.1823077721714166,0.3713088274509082,-1.1782512051833824,-0.7214545904891002,-0.9510820975962142,-0.9301708967375064,-1.4253568650887865,-1.4752848883560536,0.073843181707929,1.121505073921635,-1.0095556835194146,-0.7214545904891037,-0.9510820975962172,-0.9301708967375042,-1.4253568650887876,-0.3658447575840488,0.9587771458771988,0.5890129029168676,0.7974798079694772,0.5597426372326021,0.2642866325137111,-0.3232275790140859,0.949775841343188,0.4435780251154448,0.4786815896487458,-0.9076049060292968,-0.9287106505641436,-0.1633594557263756,-0.7496326543308284,-1.504071081063198,1.6107136468839818,1.1415940381624496,0.3378277177843326,-0.8000599120420184,-0.9470995188253064,-0.568680575477106,-0.6427485659593085,-0.0192131758521441,-1.2096911640014512,0.4131055688696468,-1.1186501669644366,0
0.5911922225465405,0.7307685218621386,0.28635372058517106,0.7213391525879244,0.7309370247723428,0.8548901853950526,0.8707280884995185,0.4726386806596702,0.035714285714285726,0.03954127624967957,0.6598885793871867,0.5622765196521877,0.6159949909468202,0.28670029200955666,0.0,0.6943589373509159,0.8681229196299478,0.4910413114548442,0.009640071146852247,0.20147124742076553,0.7627462435840753,0.9783728175152662,0.7309370247274037,0.7099892617679363,0.713856185804842,0.5450298366856793,0.02990586031753091,0.9022037228083777,0.2359170036684106,0.600625000226846,0.5875978982473119,0.6908882026550918,0.05059523853162201,0.6611942441709382,0.7689269360919522,0.5022799901361088,0.10244686368493139,0.3206975910998362,0.6793024089001639,0.5570922994918122,0.9535781610758389,0.8575603781758012,0.14243962182419867,0.7860441438025362,0.5153288688450464,0.6624193966967545,0.3375806033032455,0.7709095497147646,0.6698168614587457,0.2647803166304972,0.03139554457057572,0.0,0.03362244761661852,0.009023398154909934,0.019614379087258244,0.4195684183140838,0.45252482419873485,0.49366344458043804,0.537933801532181,0.556654162519087,0.0189035795264062,0.013084108598185925,0.0006697094535160002,0.2878504658007475,0.335092445208157,-0.7742084572562619,0.7759499547238717,1.2089436560445312,1.3821015942138832,1.5496252888341262,-0.3837531219243488,-0.7819435721356134,-1.1052478122963303,-1.300100665609705,-1.7252248301468265,-1.601185369952383,-1.2558401819869076,-1.3900429473377838,-1.0725613123230615,-1.7473252394654115,-2.022961508138284,-0.813643246768724,2.276062510798785,-1.1447585375233555,-1.2558401819869105,-1.3900429473377844,-1.0725613123230595,-1.7473252394654109,-0.196075155695994,0.4041838252732155,-0.2328343764463756,-1.218014328900251,-0.3583963648467742,1.8648052031356324,-1.1387694619637247,-1.43878038901033,0.0407241716748837,-1.1351845707440162,-1.2275784598252142,-0.7732600017610912,0.1316191612550908,-0.4726208691857565,-0.3409713128028657,0.3917570425426493,0.3533494132850847,0.5555832163787464,-0.17212325550809,-0.9492075866172136,-0.6623898025937035,-0.4694410318918289,0.0378298059473953,-0.9729843717506412,0.0955630260534379,-0.842467032657335,3
0.6629050144401967,0.7230976107995426,0.23391136214941854,0.7694719402027335,0.7221150750575731,0.954848050306386,0.9015428986263474,0.4490254872563718,0.1964285714285715,0.23945749912530317,0.7442896935933148,0.6343908665189613,0.731747773361557,0.46721529068224055,0.19232965767281468,0.43145115409974316,0.5613716871447773,0.49589427132014174,0.009105730586368673,0.18557048366080184,0.7572977636249822,0.9117404192092413,0.7221150749937212,0.7917978402200359,0.6300867646773056,0.5951703130828905,0.043200544262910645,0.9163738195055426,0.30123704610434066,0.7100930564958267,0.6915172301688256,0.8500709959658916,0.2328767122705479,0.6643235958685101,0.7292911104042554,0.5739837043315132,0.208989315707508,0.4090008383790974,0.5909991616209026,0.5968159646947032,0.8934344219029081,0.7226653846205698,0.27733461537943027,0.8139701474043395,0.6512444434837779,0.6328284966289689,0.36717150337103094,0.8059923573490264,0.7294900566885765,0.5517984947336572,0.02517720758803521,0.0,0.023012270898219264,0.0005180372004903455,0.01120508268536996,0.23884990050846389,0.4058036907527273,0.4426949353666116,0.3435187244047009,0.288076396265537,0.00788384449737389,0.0047127428317352916,0.00020882003215349379,0.09525880552127414,0.179647238649311,0.3945079184743323,-0.6051169749969931,-0.3501687714840154,0.3295509148405026,-0.260638220202595,-0.1135541911630724,0.4500184758115202,0.6384425049662931,0.6174242289509195,-0.359603100204332,0.883064847106147,0.7372250197427044,0.8160253358829911,-0.6310819672438894,0.8132269968261944,0.7212407021649778,-1.4338230426973937,0.2258044401883908,0.9067783284284106,0.7372250197427124,0.8160253358829872,-0.6310819672438874,0.8132269968261938,-0.0380449411725391,0.3166840684100132,0.9963369889451408,2.209004320779042,1.564863228982656,-0.642910653940873,0.3852462835370248,-0.0978188779132472,-0.3446783014444755,-0.3494009631167885,1.4037655439945544,0.0284254579998471,-1.108215717739145,-0.5203925253212731,0.506605757634844,0.1591105539431324,-0.5245930578745442,0.5013914805502743,-0.5849635330227821,0.3647875422623101,-0.038697833565036,-0.3825920996434649,1.21732818428018,0.6456097970144351,0.8639548030211436,1.865193542380852,1
0.8247679198731122,0.7302658485978859,0.13202625824833591,0.7227714585175921,0.7291906499266289,0.9888189476473751,0.9999999999999999,0.29610194902548737,0.6208791208791209,0.8741214360984892,0.7710306406685237,0.7588391391083934,0.8488679245950123,0.33581099017786037,0.455074337459453,0.9191703447821356,0.8456090142795109,1.0000000000000002,0.015015327144916863,0.27099546847153166,0.660848783641044,0.9743550307664872,0.7291906499275967,0.7094435951715496,0.7125802668826342,0.5433933017186752,0.03008736740136063,0.9017196165011305,0.2361695377933483,0.6118113226107894,0.590321822613087,0.8033438789412459,0.30797101419248185,0.6379540639450774,0.7183679957297004,0.5232341663019291,0.23851321858945873,0.3834889848304148,0.6165110151695852,0.5894924751629596,0.9166446530610804,0.7115995962365949,0.28840040376340526,0.7255878070967988,0.5877947565291108,0.6026233485768375,0.3973766514231624,0.7411598719606063,0.6980705942829624,0.7056488802702021,0.1635946972072272,0.0,0.017337601789076784,0.016719882518312634,0.017631191031010934,0.34639333268165373,0.3551580870578521,0.3874451858812932,0.6023648327285365,0.4353425617916465,0.0068020633744821785,0.006309322214832543,5.921293948375733e-05,0.14567563153007146,0.1651251492688488,1.0966888481172572,-0.746333863259759,-0.9686790526516876,-0.9454715059025356,-1.2225861042467316,-0.6030910774835027,1.136669807215655,-0.267412162016406,-0.1724935053709092,0.3341881852235279,-0.0617050101932206,-0.3070081129863141,0.0251107572396121,0.6714770836862485,0.358288207106067,-0.1850734769667769,0.7913446650800988,0.4484661410407884,0.8759338092374332,-0.3070081129863106,0.0251107572396095,0.6714770836862501,0.3582882071060487,1.899531493042781,-0.6398461041898853,-0.5689456319708243,-0.1578435519886154,-0.4163840912938926,-0.9618984613511868,-0.0531473045784919,0.1994891303378189,0.0251324484744531,0.1522884838100267,-0.3669616485760714,-0.4442688964711302,0.2076179284999547,-0.1158611537862378,-0.1021139973890673,-0.4763108302979,-0.619760496218996,0.3995471019038376,1.4790961113657202,-0.4656009770825651,0.6247670544658591,0.2620523121750528,-0.979646527373354,-0.4162125267575839,-0.5455194347935289,-0.9175006274384444,2
0.39100907777154603,0.06524611836940815,0.4300849248644042,0.09325176718291235,0.06519256097757734,0.09911388345209729,0.06893560330630613,0.4077961019490256,0.0480769230769231,0.061568672773215594,0.054874651810584964,0.1454748487002449,0.3016552601549719,0.12131669763737724,0.5216289592476944,0.3361606706997957,0.048376675248206887,0.010502400058543592,0.12302531731603666,0.7931356261966581,0.2034042370741944,0.5404366831969419,0.06519256098880771,0.10773316553616245,0.346892394295579,0.013694764829105595,0.1264824790926853,0.3289319226955618,0.07634991747636563,0.4437952335106846,0.3994490365858975,0.6493860836384888,0.0,0.6233152863972768,0.6579607724891525,0.588438007070244,0.3267720102840683,0.5085224249275937,0.4914775750724064,0.06061197069590149,0.07633330115865991,0.7758013442519179,0.22419865574808207,0.12396897937597609,0.07472827176367461,0.7390929384994501,0.2609070615005498,0.111719774914732,0.07371769657660648,0.800037243993398,0.2685984768035489,0.0,0.06686313015831222,0.05017551902915236,0.053803097599349814,0.28538140425748504,0.46418935366895653,0.5063883858206798,0.4167909891029898,0.39047573333855345,0.05163181614218807,0.026766106456434454,0.005600355171532642,0.12083593426330226,0.21697855155652385,0.5824666802945373,-0.5884397552028597,-0.2920259088099048,2.448062340744173,0.6322526608813503,-0.5783669923158042,0.5718646272959081,0.1908202191923465,-0.0857380915232642,-0.7144164405696205,-0.0135555822041344,0.0517850179403514,-0.3789364433836742,0.0719117641356537,0.0870140099261922,0.7990292426959617,0.4252773953019519,-0.616456747788534,0.6871463019266295,0.0517850179403554,-0.3789364433836675,0.0719117641356555,0.0870140099262036,0.809713204719297,-0.9993448834177948,-0.7927815894188917,0.1040936220425821,-0.6483349970823666,-0.2170772469183862,0.6657123556336366,0.2499572051412276,-1.8090401320256664,-0.5211807826937952,-0.2029768902911871,-0.9896732226411844,-0.8809308333933962,-0.8374663147986519,-0.0671040133379301,0.8061657769670697,0.4884267918672287,0.3901501372387366,-1.1225753849272722,-0.8693658802382583,-0.3705617240045398,-0.7302061785343408,-0.7109304424642914,-0.5016052721449983,0.1309314031801383,-0.4708035838762167,2
0.6594750950278174,0.6187331005009549,0.22912497765079542,0.6435860018255732,0.6185861983030231,0.8040870494021931,0.7754194562592853,0.36844077961019484,0.19505494505494514,0.25897259032758796,0.5974930362116992,0.5694316150035866,0.6717213115019175,0.2774090788425803,0.14379084962115163,0.6397107168769065,0.828659312261843,0.6679259364769369,0.00912326144890231,0.18744298960815806,0.7604383746198429,0.9712591187656697,0.6185861982243525,0.6486890560858224,0.6537917558338258,0.4277155823078944,0.03913186450910977,0.8632031351675766,0.23503392823984012,0.5926988643689765,0.5852980802841562,0.7585266026805313,0.04521276652825797,0.7233229994036199,0.809769984991006,0.5932632047854844,0.0732291315096838,0.33195883491475286,0.6680411650852471,0.47662323249109967,0.8026553405441704,0.8587697110875587,0.14123028891244138,0.719872744960854,0.4689058097467894,0.6851059173562789,0.31489408264372093,0.6934896883795247,0.5828150159800286,0.38455634498446606,0.0621519302371247,0.0,0.03849536625698567,0.027146283914540617,0.03158580703459117,0.30149987591632077,0.3217109977106307,0.3509574520479608,0.40655004904816067,0.37694168005726963,0.02597697459174399,0.01640608354172984,0.0015451242117978593,0.1975906488290614,0.2258137441046606,-1.6350243299438392,1.9217394168311908,1.8410426993069249,-0.4686667306332703,1.4967354772024075,1.5977057036583453,-1.6275616664477002,-1.3186789383179824,-0.7958840416249281,1.1875794482419986,-1.1444164720018624,-1.0048703570567452,-0.2008778445399623,2.288726894220621,0.0040264098596432,-1.208857217581986,-1.0501945450850716,0.7206838630424545,-0.6076066339993071,-1.0048703570567468,-0.2008778445399591,2.288726894220622,0.0040264098596513,1.7516667001546695,-0.6375082529886782,-0.653256089909634,-0.3677474641404706,-0.6386703760078469,2.072993448141034,-1.632692496284876,-1.1917213128861948,1.3935441992419195,-0.6787164126961636,-1.273479300593831,1.4804303409425366,2.908264695981987,2.648083390147447,-1.2977756478160256,-0.6316984116118144,0.834368378337537,0.352319299499843,1.8225968838795783,1.414155917690915,2.6646644823906622,2.958338727541897,-0.5221362064450239,-1.306727239428192,-0.338765222500013,-1.1792344120627594,2
0.3358045412189028,0.016167924166198777,0.48916120040167266,0.0231679651996788,0.01617945719985622,0.02189902702499711,0.014779564232607213,0.4497751124437782,0.031593406593406606,0.03663284769162585,0.028969359331476326,0.15626645784122714,0.2704918032484319,0.013273161667109103,0.5574660633181466,0.06020458681699401,0.017804095881247275,0.0006241491659335106,0.05842692873161244,0.6332786678215556,0.3670983334894591,0.3948642347971536,0.01617945719794807,0.026996946010045028,0.2919832566641061,0.002155314553799994,0.1571775329270554,0.11581027198573968,0.032731665540968846,0.6938953487927492,0.6617378612637902,0.8153945569218173,0.1180555565737847,0.7068525078512837,0.7183002515958978,0.69903011563096,0.12250953891895278,0.4414959377484927,0.5585040622515073,0.015021419411480535,0.022119225139637606,0.7058819005683447,0.29411809943165534,0.035888531537223836,0.01435992416151198,0.6750458225262917,0.3249541774737081,0.031123834401913637,0.015144002582928466,0.7456882707540244,0.4120544391048221,0.0,0.2955535929824891,0.09864360753676953,0.2125858412262478,0.6238356570364663,0.7816459055447169,0.8975838149795792,0.4390719493271056,0.39000663132329066,0.21468220868488494,0.23174261552852915,0.048874629732375253,0.3051989374103445,0.44311118770231256,-1.6249543613069954,1.6364684250227204,1.5634818116112346,-0.2267024009590011,1.4625534155364937,2.6774418230534067,-1.5961735288725885,-0.3629688767350373,-0.7080586721489527,0.1231493803508163,-0.4573111212386859,-0.6869049869846979,-1.0007519767750377,-0.2792086476710893,-0.9935131488934116,0.2410275853616338,-0.2298346139868649,-0.670632758974157,0.5723611103339281,-0.6869049869846938,-1.00075197677504,-0.2792086476710874,-0.9935131488934118,-0.4903073810338937,0.3825741544714339,0.2558445616361717,-0.2491161254217727,0.0765115835066145,-0.4659785807405826,-1.2709873287107076,-0.6634261365324138,1.985077043299553,0.1044089528044029,0.0264270585838426,0.4347058809458614,-0.2716794437036042,0.1620937856376358,0.0714169219414272,-0.0177003322920424,-0.3731642222989516,-0.2812038972889614,0.6844653409467205,-0.0106886097493923,0.4827281364750516,0.537607300908942,0.3384221989379766,1.293071539145621,0.5683954226823913,1.242990704903834,0
0.7719234687335397,0.7092263124796856,0.16012726422407997,0.7325264379155922,0.7083563964690428,0.9747331769073385,0.9457993356346983,0.33133433283358327,0.5741758241758244,0.7824431975970578,0.8662952646239555,0.7741891309349986,0.792943843793002,0.3400584019113353,0.2650602409086845,0.8749674374581208,0.661949287590487,0.6786763790658312,0.01943035641005414,0.33118122827258256,0.6140440138409453,0.9369227036640237,0.7083563964558715,0.7391030446652304,0.6624637403699482,0.5485211545654018,0.03770804031932269,0.9032316741318107,0.2662262717769589,0.6913539656922664,0.6775762422340729,0.7833863877821723,0.43220339114512707,0.6947123779690081,0.7438311205603403,0.6282118171476094,0.4248307701418894,0.43560701118215317,0.5643929888178467,0.5985663878788685,0.8616000222304117,0.6186192710308474,0.38138072896915265,0.713387614104471,0.6568217264399913,0.5729703089476854,0.42702969105231464,0.7365643476028693,0.7220275356609804,0.7274331475276765,0.15674817023901455,0.0,0.0,5.541865985483896e-05,0.0,0.4856149309780895,0.35034907473783716,0.4246655451367723,0.6406169178398707,0.6447143531370584,0.0013726463743043904,0.0008330238119377234,3.525674320732876e-06,0.2247116081376805,0.19837490774894315,0.8323525350418968,-1.0372695276405346,-0.9721617355690164,0.3801114878148786,-0.7632069106419808,-0.2767331532698825,0.8112213160735341,1.481572190131733,1.3442234411280958,-0.1590127305760644,1.420516570335677,1.765640450147377,1.523741649471924,-1.1196759072041336,1.2421068939048636,-0.0001072830247989,0.816717016261793,0.0133345582614016,0.4663085879699998,1.7656404501473713,1.5237416494719267,-1.1196759072041311,1.2421068939048732,0.080723108251921,-0.4533448478006114,-0.4416210820925086,-0.2846370469070342,-0.5033656809645705,-0.8881173263621769,1.462235594548288,1.993474514311461,-0.4786560964386148,1.754315735955956,1.00253952737439,0.6650766476764064,0.3664688447427365,0.7088745829980029,0.1476919621764354,1.414344949486685,-0.0783478958267598,0.3534456642266426,1.0778520563346967,0.7500062022711161,0.4536087027337436,0.59661082668648,-1.3795799376972693,0.8512533553745846,-2.485223295688502,-0.1619071585325653,1
0.7354119213118229,0.7263206018402223,0.18643822537830912,0.7712676056297338,0.727255168399091,1.0,0.9450512607472192,0.3838080959520239,0.4423076923076924,0.5749043359951074,0.7626740947075209,0.7174150356921488,0.7279684388721702,0.3490841518449695,0.2931121165813695,0.6462054879938022,0.43803301079554824,0.44214606037895876,0.022347333742402622,0.3646245003533044,0.5840298542725525,0.8738534525734233,0.7272551684288967,0.7856220138596973,0.6401302185074114,0.5949605997466205,0.041444151863996775,0.9163170671181184,0.2940332777926936,0.6600339864763155,0.6688273694429979,0.815154428327008,0.19921875012451168,0.7420927489370674,0.7549950362846054,0.7244695532589502,0.4269015101434923,0.497066222776947,0.502933777223053,0.6446042546747501,0.848351391297383,0.6438809943053331,0.3561190056946668,0.770311248784021,0.6860779243119296,0.6148873554252531,0.38511264457474687,0.7948791549058487,0.7369275224565943,0.5097888017191303,0.13413681645743225,0.0,0.019246589124200478,0.011971389416871064,0.015027654265027598,0.4851013935607882,0.5,0.5454545454545454,0.5814396772254413,0.5640064162702806,0.0071049865592130446,0.003592543522254403,9.144975895548533e-05,0.49406983920540526,0.5454545454545454,0.0423492270864759,-0.655895024634434,-0.9156562465377588,-0.5135832450919773,-1.0117197373482212,-0.5416340657809379,-0.0291053740931906,1.878612700225453,2.130258028273589,-0.6449587536806662,1.423119242118871,1.6892304148788966,1.9591199846541725,-0.5263157620486253,1.563119012176907,0.186780692762367,-0.7467501818778431,-0.9613229434503924,-2.204852422208492,1.6892304148788926,1.9591199846541707,-0.5263157620486233,1.5631190121768974,-0.3112114548487972,2.6598387893376354,2.7725903899202677,0.952824978579419,2.5023314732110715,-1.0118664881448909,0.7320606680912753,-0.676239818522215,-0.4997143957227475,-0.3265144103613407,1.4419975149688835,2.0976759472228963,0.264847735050057,1.0846314692711003,1.407635347931048,-1.784905615546334,-1.7279540388276218,-3.226266315167135,-0.649798578844724,2.1213725596832878,-1.3430097145274096,-0.3669168095302206,-0.9277044006605172,1.7255501866114102,-0.8450364653049965,0.6211920385613392,3
0.5246736768438411,0.6832121676794467,0.3374179424579834,0.692104176013641,0.6849394547494005,0.7853069842733467,0.7804502998230415,0.464767616191904,0.17307692307692313,0.2072179064359596,0.5704735376044568,0.5558449733010655,0.6762295082815716,0.3485532253782851,0.07836718969710221,0.4627781712432751,0.5970265921842688,0.43046249763555117,0.00922003051086116,0.19090361735369835,0.7626954316191156,0.9211484197289893,0.6849394547304877,0.6943513545066285,0.6809036578665735,0.501678807517221,0.034787860376424895,0.8888633494608289,0.2421352532922846,0.585485190520333,0.590321822613087,0.813212968954619,0.2931034474331896,0.6835664329444318,0.7593748486400236,0.5755441311301834,0.11381731108321835,0.3642923366086379,0.6357076633913621,0.544200204382943,0.8713508126888836,0.8138549343366683,0.18614506566333178,0.7519143022782345,0.5259365549798797,0.663059664050718,0.3369403359492818,0.7416240657147153,0.6433841650525334,0.3162764035815773,0.07652418262271715,0.0,0.008866492410938981,0.009026382423819548,0.009637882912812215,0.5097583757602908,0.3492956877924752,0.3810498412281548,0.5085653960708798,0.5272657510939549,0.0024651684747366035,0.001478804213138289,2.3361422260671963e-05,0.54368504284571,0.3992971991250053,-0.3526809571659891,0.1851288508590236,0.0746341521724646,-0.954981727087596,-0.3719608804929369,-0.7634444298568616,-0.4243825502645773,-0.2030311596170645,0.1631666182369343,-0.411619162099672,-0.2490973785831778,-0.5280841116215637,-0.1928404839235636,0.3476854293311645,-0.3066327114471073,1.021427234728171,0.648822351283443,-0.1514648003082811,-0.3781174021129095,-0.5280841116215672,-0.1928404839235642,0.3476854293311662,-0.3066327114471185,-0.3658447575840488,-0.2615751943381961,-0.7826685896959837,-1.589126346789994,-0.8512920396472814,-0.412855839672486,-0.3973405702668691,-0.9559824881032568,0.1946950397770457,-1.0097287533003996,-0.1136565814768002,0.1939023079758054,0.0329515524164958,-0.203917097187633,0.7887603565859219,-1.3260098684441533,0.3977347707137108,-0.0069720771649735,-1.2307442614552633,0.0283057968820955,-1.0934549596431822,-0.7715356639302949,2.394624203078094,0.3809399181656854,1.6452219729226836,1.322347840039915,3
0.3515300407194779,0.18307212981296403,0.47294336446697305,0.27328819708412694,0.18289420358508265,0.27755599599902137,0.18726549367246054,0.4347826086956522,0.26510989010989017,0.3284476130489446,0.21922005571030645,0.7530790623943195,0.8436768149703432,0.21396336607379882,0.7466063348010892,0.47774251332903717,0.05375053993302511,0.004163063502481406,0.15858355902820487,0.8392691811456444,0.1601844805922432,0.55612053340304,0.1828942037130301,0.3163067392358718,0.36457446079822176,0.07396261763695466,0.11819995830240773,0.5832823959506501,0.20387179099122252,0.43440259832253647,0.39645625569284915,0.5969511829850764,0.24056603752535374,0.6213857956614515,0.6530325261095109,0.592588205501801,0.8925305288940923,0.6913995284748063,0.30860047152519365,0.18828515904205223,0.1788210862461479,0.36067490901898225,0.6393250909810176,0.24533549477975158,0.3312598296009702,0.4304405416991275,0.5695594583008725,0.2444737902554554,0.2948977700485354,0.8649230204313871,0.4215542099483187,0.0,0.2262321287788513,0.20855879147975398,0.220857171673978,0.29797212878423845,0.371332880387443,0.40509041496811965,0.3525023623284445,0.3433894127601132,0.10041533993091356,0.06072528172682496,0.01178703949655796,0.1186032158918938,0.1640982442990433,1.7248580627466306,-1.5206878352291906,-0.986035025768624,0.3302965468210049,-0.7654671933147222,-0.1624536143483947,1.7538071037487712,0.8087195927845723,1.2795624319441834,1.1305568622706643,2.1302934634060766,0.9061010127466128,1.105051606343848,-0.3207610548879095,1.7775058602254454,1.4871568495530814,-0.5001019722915381,-1.251621136594306,0.3970782224235697,0.9061010127466126,1.1050516063438458,-0.3207610548879096,1.7775058602254317,-0.5565863738684483,-0.4170935012591084,-0.6978920282318863,-0.7107171982817108,-0.4005181128970126,-0.3757440458846333,1.6311921220019097,1.3610014768153764,-0.0331094819017442,1.8142601569025265,1.2600662471651198,0.9989475720210456,-0.2216756419961419,1.7087777383773022,1.1140327809322346,0.6492386213358857,-1.531160035330436,0.7101626595886293,0.7218836326388888,1.1382501100802884,-0.4926637476121919,0.4591982792528576,1.547826556197001,0.317738575526925,0.2498972582206161,0.8000820193451218,1
0.2397217550764228,0.14637270092753144,0.6055941769860463,0.20602236793920686,0.14658108150852298,0.18579667821601764,0.1338916896593321,0.5337331334332834,0.14560439560439564,0.16103052783444044,0.14818941504178273,0.7979737782393658,0.8526679524160415,0.1810459251393682,0.4016227179691426,0.10254212375346401,0.02598329916553568,0.0002647856053332166,0.06830524515311286,0.6715814072756702,0.3294819273982845,0.44906000757419273,0.14658108153551458,0.2328146743939027,0.3893714658238897,0.04746033399135584,0.10762853580824217,0.5140130573377122,0.14076127437168667,0.7675401071358326,0.7594692516598472,0.9292152172461334,0.06439393879024621,0.5427900839270161,0.5941269933558528,0.4917635607969846,0.5381072820845163,0.49930450723817266,0.5006954927618273,0.13213502807571792,0.17179332916280798,0.534263368146584,0.46573663185341596,0.2130369048446369,0.2179098462099556,0.537296473270065,0.46270352672993503,0.2010397462659671,0.20494536449481007,0.39919424229528594,0.5360330412008926,0.0,0.14689839766130566,0.1678506380275343,0.16113460361282272,0.19480226781033388,0.06361270068351614,0.0693956734729267,0.5303264509774551,0.46067875547932935,0.0018543575116773251,0.000383158668567988,1.9516091855067715e-05,0.15660196136045346,0.05297335446437167,1.0465048232923655,-0.7497125425854541,-0.7254814414958815,-0.9536899148292866,-0.9094161245675982,-1.0071931094513624,0.9574610915644688,-0.3256103980274429,-0.8207717724154482,-0.9967396539657476,-0.7981151909229409,-0.0839954513992601,-0.8154178509724047,-1.4514461908641236,-1.2357313230580498,-1.0454278358295477,-0.6294435026176121,0.5548584597786913,0.4533940711440866,-0.0839954513992533,-0.8154178509724094,-1.451446190864124,-1.2357313230580516,-0.5783786958237027,-0.7249056741399176,0.0,0.0,-0.441626172952016,-0.7657091158067938,0.8821534456616557,0.3134486430999457,-1.9580319873983136,-0.474149852900898,0.2337729331596537,-0.6838909388063896,-1.6074855268811985,-1.311514558994339,-0.8758746999617493,-0.4278296133591786,1.3779934767988704,-2.025307499142204,-0.4457756236561754,-0.4126301419230424,-0.1214772995535055,-0.947753512399914,-0.0927146443232503,-0.2801632230074393,-0.2589768101319469,-0.3371169323944148,0
0.4211096898963296,0.08350248591504408,0.4002708142092649,0.16462784244087886,0.08370519432924599,0.17932024204816274,0.0910067702262696,0.38080959520239877,0.13461538461538464,0.17707892677094356,0.10919220055710308,0.5687080660033098,0.7663934425907212,0.10406158747013539,0.5451411333278655,0.14103296571561996,0.015208115007383817,0.0006029140464434932,0.15924720786904684,0.8404883402510982,0.15962455785178714,0.3726975256836207,0.083705194331568,0.19654885357996033,0.26156744036924057,0.026014940110656526,0.17838701401073084,0.4223015925492277,0.17901699279680708,0.4572420836450578,0.47539080079007523,0.5674037881973423,0.15740740734837963,0.8051860082825222,0.7995629734008796,0.8123254435269271,0.30329031321071254,0.6107482330629653,0.38925176693703467,0.08417903000883548,0.0881636723424522,0.6023470326573339,0.397652967342666,0.19094854655273807,0.173681091240039,0.6074333774855002,0.39256662251449986,0.17015407854225287,0.1534469649079681,0.5040950610281527,0.44024082501974615,0.0,0.18132033600002032,0.17768519587595522,0.17683016114313443,0.11863297221094095,0.1681579121649551,0.09172249754452094,0.13837894146400087,0.13185436058194966,0.06230837416953271,0.06229875166783618,0.004507223323467762,0.1352894661480523,0.09254318211385115,-0.7347102367545641,0.8729647559017324,1.955669985371327,1.3832124066508673,1.721427833126827,-1.0100880357539772,-0.8383486723239708,-0.9307037042106364,-0.9625770927049532,-0.0001410793007774,-0.96012177424141,-0.7411134043355984,-0.5612830402682984,0.95929196745521,-0.4514947088076234,-0.6704075422747313,0.785146128745244,0.5671717719803363,0.5144178474879095,-0.7411134043355975,-0.5612830402683063,0.9592919674552102,-0.4514947088076294,-0.5031951850780754,-0.5910742946265223,0.0,0.0,-0.4244978145957646,0.6052364699492907,-1.1577560657580404,-0.4875417005464315,0.4967980080270187,-1.1553869169093347,-1.1435678189907728,-0.8615165778913706,1.270482248667086,-0.445819138754765,-0.5396100304674679,0.189814466644043,1.5302633958962504,0.4607584558311554,0.4133821456977474,-0.9110926874180816,2.2976121007693657,-0.0294829551646423,0.126962906345389,-1.2914315828972294,1.4411222240044708,-1.4715045525312167,0
0.563246469223416,0.051667971286368894,0.2728639769086222,0.17984882421185738,0.05169705347159677,0.22272634486602932,0.06570941392043647,0.26011994002998506,0.2362637362637363,0.35162133056145806,0.1816155988857939,0.48386451578398987,0.6332472491304085,0.10591983010353068,0.7036979248305686,0.026782175545783035,0.004621262671143622,0.0006241491659335106,0.09385670059653041,0.7410639135018459,0.2574005822700085,0.21830731389509106,0.051697053470665076,0.2273741316550113,0.13876852271596796,0.020387689087831534,0.323092581668872,0.3861511276870948,0.3412208250070684,0.5213636370826954,0.5084936192564092,0.6725784442654141,0.15548780559717987,0.7268508515684724,0.729841291599842,0.7305992110515973,0.4658559069033652,0.4998340798088786,0.5001659201911214,0.04816757346730226,0.061321349183870034,0.6110436683760515,0.3889563316239485,0.22170768157084525,0.20008520109114844,0.6033108444476872,0.3966891555523126,0.18739725958791303,0.1709465362188053,0.6409182244984204,0.3158548431142437,0.0,0.3370946200137971,0.18141447031987928,0.30766093279241746,0.6192864766218651,0.45252482419873485,0.49366344458043804,0.5333191204799929,0.4901660283020281,0.08673809734177336,0.07971853832254759,0.004784976982915979,0.42105526019627504,0.335092445208157,-1.2992203635822297,1.6984334500336054,1.182960509222145,1.2447581961953436,1.4645082738136102,-0.9880865958541056,-1.2287701548384848,-1.438617279010015,-1.6508415354338226,1.7733024536258073,-1.196986571920827,-1.310666231698006,-1.7186389904777766,0.2745908772394863,-2.0411307576964366,-0.3820127242516422,2.065074882960524,0.7304443264300252,0.5127062949900013,-1.310666231698005,-1.7186389904777766,0.2745908772394864,-2.041130757696439,1.757767222871271,1.4652963252042996,0.0509565317385669,0.573634807426293,0.4421971182305578,0.3002275626361742,-0.9833836193587088,-1.430810577576363,-0.5893660628040449,-1.3733174936785686,-1.572521316337053,-1.7802243414633765,0.520962864361869,-1.918808378960789,-0.1770959437706916,-0.0016732609237006,0.2266387733829961,-0.0312445498123445,-1.911333705641176,-1.7407531410799233,-1.672403475643957,-2.181408323424328,0.3603809580647118,-1.4729397303388585,1.4247239058695658,-1.5804732252212492,3
0.303211979454834,0.13960029363950363,0.527004754865945,0.2779897862823316,0.13945013625013147,0.2696538452035201,0.13605325385164588,0.4587706146926537,0.23076923076923084,0.2789840051337958,0.19052924791086354,0.7399202663155046,0.8357708149270936,0.22219272630740647,0.6412711775760396,0.13372046759804174,0.0073503841300929145,0.0002394668090181959,0.2905311939175679,0.9193840016496858,0.08076485392949845,0.2750668554552844,0.13945013630841605,0.334178812335237,0.2573758149839941,0.06119666918555633,0.18160681554952532,0.5535756144286936,0.29646213486800377,0.4932512320946266,0.47271948179078327,0.647473312287927,0.06250000066406249,0.5865598055570533,0.635704500148909,0.5305480504778393,0.4795800376574624,0.5982730694218278,0.4017269305781722,0.1359427974912224,0.1495690815240401,0.4633530986298616,0.5366469013701383,0.2872382462760753,0.32859351970532535,0.4824939292221303,0.5175060707778696,0.2588521181654247,0.2878428939614202,0.8054241423977369,0.33530849129966434,0.0,0.17511363646512695,0.1897792469592693,0.18587867125387775,0.11945118344762488,0.13526789691757576,0.1475649784555372,0.6839337716697987,0.6503902793078228,0.027009344975437787,0.013825951822073133,0.0018585493029853232,0.04765030458329036,0.05988241288310369,0.8113041229319015,-0.772968911295175,-0.7775593094535854,-0.5258125227350958,-0.5393718162826354,0.5276968161949485,0.7834814121707402,0.123020020030748,0.1392683660573663,-0.6700719307687288,-0.257348388673706,0.0551685653319233,0.1578613980613648,-0.328481330995976,0.2254537787991354,0.9625365141481816,-0.4742560717722555,-0.610694691084462,0.5364558210220778,0.0551685653319186,0.1578613980613696,-0.3284813309959761,0.2254537787991495,-0.6900643458443807,-0.5107754669184851,0.0,0.0,-0.4142207995820137,-0.2242412635164595,-0.286507253065191,-0.8703227114212595,-0.4633983364463707,-0.8950035801858253,0.097332828361651,-0.0303227732354797,-0.8901873170517413,-0.4105377407384441,0.3101189612916812,1.0179656063804146,-0.0754983901419568,1.0544364791277214,0.593935032248256,-0.043972232947215,-0.1079983089254116,-0.4664315153070108,-0.5955627653531753,0.4499610293585114,-0.1478758115603416,0.7320987300861679,1
0.38570023212415205,0.14592368204757392,0.43544697227187534,0.2285169476622731,0.14576733968609246,0.2399799073053342,0.1539253304349334,0.41041979010494745,0.20467032967032972,0.25977771676787187,0.1880222841225627,0.6456368538654725,0.6834076078619314,0.2569684098752323,0.49008005575619473,0.5357764151115005,0.021711808669289918,0.0010349670545288466,0.43228546565889425,0.9548714191539992,0.04510976286563098,0.42314929634704956,0.14576733973767345,0.26605063130014467,0.341088334104343,0.05258556464572252,0.1293516305690113,0.5299282772044096,0.18391063956626225,0.3994704337522629,0.3719726176848933,0.530261689098765,0.11590909194744317,0.588421783030467,0.6243839216512248,0.5554825669936676,0.759944417881862,0.6490643124884055,0.35093568751159465,0.14707026374486418,0.1485795661403874,0.4095666020905391,0.5904333979094609,0.21649787455581782,0.27120762622204553,0.457617938495259,0.542382061504741,0.20860981102333737,0.24175029449328903,0.7375953573438092,0.33145213145353536,0.0,0.20166400196363637,0.22728422313317154,0.21704958699939425,0.37774254481166025,0.2841264696462817,0.3099561487050345,0.650805173935426,0.6406111917660756,0.04256865570853147,0.03618488113865003,0.002723395876894773,0.15880362762334316,0.13210011941507901,-0.2787503991726154,-0.0709850512139995,-0.2062272207200064,0.9657700649784932,0.3352643559444214,0.1750947925364787,-0.2948373381045152,0.4561261682054771,0.6148955969353411,0.175025835982314,0.8308889365138038,0.1579688418966704,0.2944389874683126,0.1120733328783757,0.5447044501102133,0.6685281921422879,-1.2880907303434326,-0.7229896548338147,0.480373478764775,0.157968841896668,0.2944389874683094,0.1120733328783757,0.5447044501102197,-0.6838560680780583,-0.6111490015535316,0.0,0.0,-0.4270670683492023,-0.7382056443991878,-0.3008280167005066,0.1477199416392139,0.7773146378818215,0.3681370711177497,0.7196642557799829,0.9901637463664988,-0.3992955550641552,1.129644993065177,1.8728808924436344,0.3546618233302349,-1.302448963629363,0.8092998342658061,0.3979322519189807,0.9506022185526708,-0.5463532356714206,0.8596843717012269,0.2954464235984086,0.6627248897696024,-0.4915625623800454,0.34985724551037,2
0.38316235036235646,0.10165830205224644,0.4384348344082437,0.22723268208767988,0.1015715707116445,0.23798484686884014,0.10677709073402855,0.41679160419790107,0.20329670329670335,0.2563218401940972,0.19498607242339835,0.5985755400021944,0.6815073971082198,0.19644279267321477,0.6289592759658483,0.2087846906103758,0.01571629265097699,0.000726241086558594,0.2282947261682266,0.8915884939379463,0.10841536596732596,0.3772967156615856,0.10157157071644862,0.27930833541596073,0.2221979103306801,0.04041301488342808,0.21211090979249927,0.48920480269438515,0.28455496422920323,0.3821729491380673,0.3621708222533768,0.6409524982089783,0.0,0.6969003759728043,0.7069439622508757,0.6926375850130757,0.734372210730383,0.6625852701366437,0.3374147298633564,0.10500654216597055,0.1011521826025241,0.4448450631607602,0.5551549368392398,0.23561963247354,0.2782348620407118,0.46769906998800004,0.5323009300119999,0.21045171123247608,0.23995126589235946,0.821459060219812,0.37465306708571244,0.0,0.297316928778341,0.2453899873333295,0.2573049699429581,0.4429707128254394,0.499896227028107,0.5063883858206798,0.474799245416468,0.4099507190506083,0.16036739678558354,0.17057829266691377,0.023169063145145316,0.1871840621895481,0.21697855155652385,0.8936936029151925,-0.5390402139678376,-0.6749602177218198,-1.1276852077622492,-0.8126281922048508,1.9189983972315705,1.0057481346258057,-0.7589008226879521,-0.4765024044962153,0.7324230742682584,-0.0417120398429161,-0.8848996238100556,-0.7385243629496829,1.5400564406933757,-0.1080077890742556,0.6400717414759213,0.2156690243796692,-0.4017800405160114,0.4835967630756395,-0.8848996238100553,-0.7385243629496786,1.540056440693376,-0.1080077890742558,-0.6854616571555555,-0.484009191015806,0.0,0.0,-0.4107951279107635,1.7994963337204792,-0.5585655744962449,-0.7670363830611472,0.3086180057547591,0.1088566186363481,-1.0418781228097875,-0.8427765020336455,1.7218506616172822,-0.1082072596746622,-0.2667784570402006,-0.0403153665979442,0.6039070965535726,0.7095733054854741,-0.7211163446996792,-0.9279018240189691,-0.638973820078853,0.1228334492238809,0.322947907691578,-0.4813721258877605,-0.0065436585864501,0.0671176300071109,2
0.38100286683210505,0.10392188952727197,0.4401874992933318,0.1989923775179181,0.10398979752051174,0.20816462130002078,0.10898836719819407,0.42578710644677653,0.15934065934065939,0.1988786282617987,0.15320334261838442,0.7191586102774968,0.8589617487403746,0.14972126360499072,0.5683841775256986,0.29537347993509855,0.021691627744979788,0.0011738120665789604,0.2380668044438887,0.896673185901426,0.10323270768135007,0.4230158299138522,0.10398979752783913,0.24032720643897681,0.26651952823151714,0.03641232879995655,0.17468248692515362,0.47321743521986237,0.21140855473883088,0.3945454542258727,0.3918358271139545,0.6725784442654141,0.05182926853239328,0.7224292175117286,0.7259962514832405,0.7257940998442547,0.6020198703421733,0.5931983988806757,0.4068016011193243,0.10203253138963161,0.11180346855642051,0.39290770672007425,0.6070922932799255,0.1916716584697568,0.2479363030980081,0.4209464217574842,0.5790535782425157,0.17558114888874926,0.21692579984679847,0.6188198965847751,0.44805399505074406,0.0,0.25141054364165505,0.21926067139499889,0.2248047631435517,0.3488280314584271,0.48256649656594613,0.46794326939728104,0.44463569116530716,0.3568709744330147,0.1426063802111097,0.1060867232228872,0.05813853543478535,0.2275122160316686,0.3010849921395475,-0.2331036968562913,0.4313210522220977,-0.2470240289716983,-0.819444745657885,-0.4866624645819036,-0.6980149803321132,-0.2848328344681282,-1.0540677421224536,-1.038278214708304,0.2056405269049248,-0.8975537144770357,-0.8053351286618954,-0.7671047673940794,1.126323120545835,-0.4530607029681868,-2.174301383019789,1.338120412282126,2.587913841643412,0.4063115668750365,-0.8053351286618935,-0.7671047673940786,1.1263231205458353,-0.4530607029682065,-0.6164213268231767,-0.684756260285899,0.0,0.0,-0.4364876654451406,1.9954051040241512,-1.0364267601546258,-1.279737226249238,0.7219193706771371,-0.5933867777206803,-1.252902374054526,-1.0672441466737284,1.288768603104803,-0.4996429158329817,-0.6209542345826138,-2.2975191226514875,-1.1284741715079836,-1.0392882405790782,-0.4185032101738607,-1.1336478149036875,0.7871325099946872,-0.0793474724992913,0.2024276504931063,-0.8556643738822389,-1.721509166391458,-0.915862362217174,2
0.3558271311679657,0.12435645878150275,0.46739796640333353,0.25878235507810443,0.12431110754558489,0.26406460473516424,0.1273998483246653,0.4295352323838081,0.2953296703296704,0.36787132450605464,0.24791086350974934,0.6807056841325595,0.796240814068878,0.19803557207326786,0.6911441498448246,0.196265430267195,0.010867519280440342,0.00029745501993324333,0.3011794190112794,0.9231234718900195,0.07705294236143292,0.32650188878769115,0.12431110760882319,0.31647559695585636,0.24096128134423117,0.05302958171162718,0.19501688723796937,0.5312360404538525,0.2981455654556825,0.4820062710124903,0.4681371032760383,0.6180903684960958,0.17346938773341836,0.621667909877377,0.6536488308122743,0.5923218091541287,0.636977584474578,0.595383527850257,0.40461647214974283,0.12135564693246281,0.13355815027217574,0.46089825455457356,0.5391017454454264,0.2713224868625994,0.31175668669829204,0.4779179553516708,0.5220820446483292,0.2425856467730103,0.2717888880764086,0.7075198575282533,0.4124223587442093,0.0,0.28907514962981,0.1959940739290248,0.23316112964151375,0.3333321592965151,0.4113925818656405,0.4487919074897896,0.6583452320416209,0.6541803282228493,0.11112281666560912,0.10680482705502627,0.009109365973616659,0.1642837111883294,0.22155559385115625,-1.3546052178209014,1.1602153361946832,0.5406959329631519,-0.080812634264871,0.4887687837044476,2.0585338450175987,-1.3660149046031125,0.3736869991149719,0.0602739702540877,-0.9729360351832402,-0.366842493261361,0.3259356304362156,0.1752478209530716,-1.1566837575755136,-0.1914367434266899,0.5928754929629915,0.0578559150585262,-0.4485022349824488,-1.390224152466048,0.3259356304362151,0.1752478209530691,-1.1566837575755138,-0.1914367434266873,-0.3462038749924755,-0.1248949893215264,-0.6160165330592439,-0.9633202838167242,-0.3345739332254446,-1.1923289929038197,-0.151796891082799,1.034649647861151,0.1438366786204648,-0.1141249447014675,0.6962386517723422,0.5456703911923183,-1.0352792322359792,0.0357045952637162,0.9309731027255648,-0.1697029063611985,0.0437244972442407,-0.1731479815102606,-0.3563695693498356,0.3076065768255036,0.3685533397039356,0.486720738572591,-1.0161285040520525,2.391687655873276,-0.2916431820712535,1.987148973931236,0
0.3523800150993983,0.1734405601735672,0.47151286759422384,0.27899135077599496,0.1733567295260381,0.28371345615262833,0.1775547892450235,0.43103448275862066,0.2802197802197803,0.3484973632549025,0.23119777158774374,0.7530790623943195,0.783539371102819,0.2099814175736661,0.6601571803080457,0.2986558867391922,0.018905364555124444,0.00044528412099836427,0.274398191687437,0.9133371155033384,0.08688351664245458,0.4033779201982841,0.17335672958276707,0.32908504528203975,0.33088308221248297,0.07293303401336321,0.1345914345058788,0.5810788940095093,0.23271714653705897,0.27812220644829766,0.26556651659223274,0.47168687409354204,0.04086538415054086,0.6621924651475868,0.6812476302193087,0.6483025414697989,0.747094383759185,0.7219783550517413,0.27802164494825854,0.18218614992517493,0.16343489086720145,0.38191141921820904,0.6180885807817907,0.2613542163261799,0.3402109969721753,0.444366120892133,0.555633879107867,0.25382885442762415,0.2994111983325964,0.7953201912358259,0.4073852128486015,0.0,0.18138899455508833,0.1765782010819863,0.1752706888396949,0.038924406302444606,0.07785534994174158,0.04246655451367723,0.06681339916129456,0.06366314073164726,0.037937654984324894,0.03792778239264118,0.003718735969980077,0.01968260237439326,0.019837490774894315,0.1766612999550177,-1.11211001981204,-0.9097854705932288,-1.0110413520593673,-0.985397733890583,-0.2741977696293219,0.1493688373284853,2.4876178799454096,1.7363553306512765,-1.2254627313547826,1.048759858907607,2.589579297053355,1.981665087948961,-1.6747020263557904,1.2242946536498218,-0.5719292078055722,0.1374625862405135,0.471369798679699,0.5135360779987574,2.5895792970533567,1.9816650879489628,-1.6747020263557897,1.2242946536498251,-0.3758522254786766,-0.5375417428211642,-0.6554491388229626,-0.7623735892753827,-0.3988052770613874,-1.0863250305788386,2.1365766292412127,1.4837135081851518,-1.1935791153237527,1.174191259837596,1.6884853225385652,1.188616201474632,-0.7047286464775199,0.5122255554491203,-0.4173348169164987,1.3910935100253918,-0.2825710583481091,0.9616993850109248,1.2161001518824452,1.3853315778935027,0.4228293962652824,0.9837792370816758,-2.5556683081312004,0.6534515810326195,-1.499596046371687,0.0058365105267769,1
0.4477019989634017,0.10929190772217612,0.3743189395231049,0.19679048096901208,0.10963878883010417,0.21929377561438124,0.12199656158482805,0.33958020989505255,0.25824175824175827,0.3521288890396012,0.20835654596100278,0.732111750026461,0.7907674293741694,0.11574196973719142,0.7078934138258157,0.2415425331895188,0.01889432349116133,0.0016066818100293145,0.2219653427229735,0.8876216361256172,0.11191546429969385,0.40329486758297994,0.10963878886918821,0.23781771444499877,0.28425369961435354,0.03771793453742685,0.16223482151626498,0.4786106515035218,0.19719294378962413,0.3332267748633131,0.3521963814221921,0.4495749815157005,0.085000000053125,0.66608968741465,0.6879436887283068,0.6464312400145324,0.6696047840215313,0.55510892232661,0.44489107767339,0.10415999462375614,0.12238127733555573,0.5905887609534528,0.4094112390465471,0.2279831811445882,0.21303847635383313,0.590940427549843,0.40905957245015695,0.20426856051907388,0.19084034882251713,0.36885073717970235,0.5174816498262963,0.0,0.25191331564999575,0.22368495592160564,0.2467522965015969,0.5586583373378186,0.41666666666666674,0.5454545454545454,0.5778260308227972,0.549991202287367,0.07073955310448939,0.07174416954959835,0.0015785426543278862,0.566345576461776,0.5454545454545454,-1.3671706566263009,1.205480856817965,1.5715342558318866,1.5543852236542706,1.4379994770518385,-0.1584007175247341,-1.295787926925043,0.257020521217234,-0.0282465368542107,-1.313848196024923,-0.6238184530078983,0.4484749852300361,1.2335682088413134,-0.0240900285038241,0.8985561288289867,0.8746650565856842,-0.0563410741394862,-0.7772850994529076,-0.0812113087203525,0.4484749852300341,1.2335682088413114,-0.0240900285038241,0.8985561288289825,2.1797120516381647,2.60414989125579,2.155262598634584,1.911606732127596,3.206714156929539,0.2586738552820933,-0.3012922957039759,1.0735260412240415,2.137460855118773,1.5499481190639126,0.0909202683802157,1.4391300863871133,0.4367735737704604,1.225981677852481,0.6918061381479287,0.8358117172605828,-0.6791065908022662,0.2414405959911745,1.7572548273519613,1.261884072169797,0.8443529626517671,1.744245880325044,1.0974562071510643,-0.3832014982308263,-0.1722052597683817,-0.5489034472622771,3
0.3274688362962006,0.16119286133603128,0.4990999632175944,0.22447665816286771,0.16151713420474495,0.2225836041836226,0.16115093493879848,0.46776611694152914,0.23351648351648358,0.2798454087634589,0.16935933147632315,0.8448575005753547,0.8697966383307599,0.15529599150517656,0.5291736127676467,0.49750704435775944,0.056288132731389745,0.0016393512246293412,0.1577907181135095,0.8391367728904046,0.1611178968761906,0.5630030591658793,0.1615171341144405,0.24900536597411355,0.40367242531920533,0.0545003330097185,0.10202125237909596,0.5354937732822571,0.14480421178572614,0.7091829696556539,0.6937655632609182,0.7990822270996158,0.3035714290647321,0.8589456317412569,0.8267078979803106,0.9037706652152151,0.3596463860007906,0.6350614959715843,0.36493850402841566,0.16113693652136943,0.16756842776425906,0.6129889629076843,0.38701103709231566,0.24270271106336655,0.2191854537508243,0.6303946804847202,0.3696053195152798,0.2327801421486444,0.20495339004131594,0.3901875417094945,0.8437657806307132,0.0,0.17204959295701255,0.16625163654058966,0.16650844255540345,0.3555996361492295,0.2619717658443564,0.28578738092111605,0.606586657361101,0.5599254592587986,0.027539467986746,0.011337930565283968,0.0026685850145699384,0.38495779586431017,0.299472899343754,0.6145386589718059,-0.6029108770663901,-0.7237879686636656,-0.9599360609912256,-0.94902519879885,-0.3818890280865885,0.6587252518249932,0.0017087647600893,1.146861860770695,1.1622508735462322,1.1325563675206085,-0.6572184927899984,-0.3468640975546298,0.9438286503708476,-0.1896528465823531,-0.3817551536868633,-1.651095598502294,-0.6988853410482143,-2.826434682595509,-0.6572184927900021,-0.3468640975546249,0.9438286503708476,-0.189652846582341,1.0985404786331128,0.6167539054818701,-0.2368614302590579,-0.0488304681800712,0.0396806968586491,-0.5764852325224629,0.126634279415318,-0.57861065997044,-0.3484625722057459,-0.4100236594613632,0.224389125034615,0.103447282662378,-0.3801860318147587,0.0821954329481825,-2.0221636928018234,-1.5015454750830848,1.2167319698841856,-1.6783824442557664,-1.247389588217554,0.1263232867691526,-1.1406104218996984,-0.9520381773620932,0.3066256123184197,0.2892088026834222,1.474169109166912,0.9117194102195456,3
0.3561253435054348,0.06890305449495225,0.46638511121212567,0.07432838979548874,0.0688277076933176,0.0755963940028968,0.07011819247088527,0.42428785607196395,0.07692307692307694,0.09586678231086654,0.06908077994428971,0.5703385988971833,0.748953282529729,0.080169896469339,0.7887225896766303,0.17687125845375115,0.08019607098809826,0.004285573807231506,0.036404523902955455,0.5120304944452037,0.487577436434939,0.6160617100445175,0.06882770769008204,0.07702058800215143,0.45474063488161487,0.011521769862433015,0.08443051949050365,0.30494486665575127,0.03620855340807612,0.7946478884164375,0.7724962984834777,0.9455346828937099,0.09107142893191963,0.6106716167413855,0.645179449267046,0.5775972463431245,0.30329031321071254,0.41115960286604425,0.5888403971339558,0.05764693036394247,0.08800113117125821,0.6649477104898198,0.3350522895101802,0.08287307465561264,0.06022763892257618,0.6166625176886898,0.3833374823113101,0.07937346409999971,0.06610176712099677,0.8113656096587862,0.5411153548989088,0.0,0.2107593051032195,0.17082224378742505,0.18814847182956201,0.0,0.03375753458067663,0.03682640136073814,0.0,0.0,0.0464456694976695,0.04643588421441621,0.0,0.0,0.014918022209003939,1.0546642723387218,-0.7492050130176858,-0.6550550087604414,2.2938125049631544,-0.0556336918497646,-0.673151043654785,1.0704842953409737,-0.9721090413540496,-0.5413610707384734,2.56772455113449,0.1949072698005526,-0.8801428274223424,-0.8152817918160709,2.3053780428100024,-0.0536952434178593,-0.775221294229805,-0.489442062694352,0.4716399668385942,0.6882552681751162,-0.8801428274223292,-0.8152817918160709,2.305378042809997,-0.0536952434178602,-0.683357484442267,-0.258589266084673,-0.142709632882746,0.1703294418866545,-0.3372943033615231,1.2229142901469976,-1.100594372077662,-0.2103730775295084,0.1578725301078316,0.3416005118923398,-0.4575994221635954,0.08666251123687,0.9100849413942836,0.4547838473247866,-0.450543895088399,-0.5434911847520421,0.205942348650203,-0.2210682800909756,0.4098333785660107,-0.1614452761938744,1.1835461640793208,0.7082330527978188,-0.864945052133546,1.1674187587280307,-2.831625272270697,0.405631698127664,1
0.4617423575983539,0.06149213049672582,0.3595948778026853,0.06271266676566568,0.06155554652533303,0.07404198813857027,0.0701997403859985,0.3343328335832084,0.05082417582417584,0.0742465461708941,0.04150417827298051,0.47782293518041286,0.8098495029152296,0.08999203610299975,0.6729411764340484,0.26246750082677456,0.17041035135235677,0.01657793109171056,0.023773303065934746,0.40232002848305903,0.5948244319824552,0.7300494355239587,0.061555546523595316,0.055551093711888835,0.4981118621048851,0.008720797178561113,0.07191762807918858,0.2676148691658391,0.019810850427740334,0.7458941891399017,0.7420307720431975,0.9251527771098187,0.05182926853239328,0.5579426829592218,0.597982811124729,0.5214076597518882,0.3983911856371489,0.28891576262683955,0.7110842373731605,0.043744333516824885,0.0871998985070826,0.6215948692236535,0.37840513077634663,0.05858356315319324,0.0447924612537826,0.5442013040396724,0.45579869596032757,0.0566705970129209,0.054949781084724154,0.6014330067180469,0.4836710598110626,0.0,0.2543006823332808,0.21294914690588662,0.23068226134045255,0.3071020081547127,0.25445080273406456,0.2775826938917068,0.4497180429500616,0.29184735984515026,0.06798819220003557,0.02363675217605143,0.01936104673975721,0.24083310283527481,0.21189341785748675,0.5117433216738018,-0.678897175211852,-0.6732902549999249,0.4855902289454887,-0.6514561142334775,1.4659330409433735,0.4888275398675463,-0.0696564203943076,-0.2401230619533134,-0.3387280871949797,-0.1293134770792128,-0.3450777812272968,-0.5114866577304008,-0.1307102055065176,-0.3961438603888586,-0.6051115188381996,1.0384040059401654,0.4851565068332015,0.8102906798444615,-0.3450777812273103,-0.5114866577303965,-0.1307102055065172,-0.3961438603888612,-0.7946380730524525,-0.833924054741307,-0.7141174358253833,-0.9377822416963634,-0.6452980539691807,0.9609385354073188,1.0715436395139732,1.48725971449285,-0.5967367460509083,1.251824757771435,-0.3517788987358506,-0.5729508372435372,-0.3832379263909936,-0.5514766885226199,-0.6280078685076371,1.0564763977486675,0.6973217622363999,1.3422942923198624,-0.285955077858297,-0.4205302428299389,-0.0688009621615806,-0.3559873026551662,-0.5789542078286443,-1.502829791694939,0.3537675233887024,-1.4344035867403546,0
0.36529932126167286,0.06959233397590728,0.4571980814634323,0.09200536903800428,0.06988651303620493,0.0947041460432235,0.07150707063861017,0.4077961019490256,0.08241758241758244,0.10519229341410372,0.0913649025069638,0.5690107269946002,0.7897299904566456,0.07778072736925937,0.4705882353409635,0.31363895612592974,0.06513988327412527,0.002733776613730236,0.08435311624400196,0.7192277901489573,0.2808414059095291,0.5848454581676698,0.06988651304928115,0.10504782233081895,0.3749962429602532,0.014229260488692497,0.11361760189489686,0.3343240651536681,0.06736446008051045,0.803347594892636,0.8093515714613008,0.9416973399197355,0.1847826093654891,0.6396154269002934,0.6689468113404311,0.6112991712042732,0.5986504522301788,0.4650630571726201,0.5349369428273799,0.06204553791180044,0.08517945278819261,0.496842551898647,0.5031574481013529,0.0928624700501455,0.10115657913615284,0.4995040554365616,0.5004959445634385,0.08829117849746657,0.09588989505155562,0.4620156069478663,0.5308619633873679,0.0,0.20709013873126603,0.22033132931091814,0.21977865119075746,0.34127824984498806,0.25223686824743263,0.2751674926335628,0.3828278376537521,0.39187903930096013,0.01991729748676431,0.021976458587077505,0.00046315644073222615,0.3560141477539149,0.27762954634155346,1.220933813479854,-0.7805409884190224,-0.9803658383083572,0.1440556553531434,-1.121390654645183,-0.9771426244217928,1.17210925196988,0.7792667631621195,0.3446617865773234,-0.2030342797699827,0.2754939294296273,1.25206183627232,1.0125958615951811,0.5281904373771481,0.986462982710441,0.4850664201717897,-0.0831005284774256,-0.5213541689196357,0.6995594600730812,1.2520618362723273,1.0125958615951758,0.5281904373771499,0.986462982710447,-0.6311155793701799,-0.8144991573899502,-0.7844420530490944,-0.668069498639268,-0.6407685870484798,0.3606127430999513,0.4971275530405177,1.6584811317187913,1.0681786619734106,1.4815172135584396,1.2620359171078557,1.267364695020707,-0.0602195824284431,0.46375554375147,-0.2852045070046861,0.1371149440043012,0.300002810799936,1.0612034519490086,-0.2292552661409429,1.2965116514349626,0.0436227416633159,0.7308231233338391,-0.7051115310212455,0.8722135359592262,-0.6742893215749766,0.540585970746409,0
0.25989248398125886,0.10810315146693317,0.5796699680263718,0.08409803666126382,0.10827669791318698,0.07458989243369779,0.10006250878489414,0.5299850074962519,0.10302197802197806,0.11238415518916439,0.08440111420612814,0.7201820722545228,0.8792538157266879,0.07937350676931246,0.4977375565340595,0.6045200070495764,0.29631444144619945,0.00289712368673037,0.03294981951126649,0.48732072635745205,0.5142960121726353,0.8142282618813608,0.10827669795544104,0.07290209038778207,0.6916126764251148,0.01644184851009784,0.03315575146381684,0.35490841842680254,0.01047238887998693,0.7378291538929146,0.7428378829379138,0.9210680180376245,0.05592105165995065,0.6836892259778753,0.7013051050613248,0.6687632342591421,0.29226412513699085,0.4387257333902027,0.5612742666097973,0.09279090745878384,0.13366106347377274,0.8501782894072056,0.1498217105927946,0.09319905769193812,0.03973847572795068,0.7147302713598599,0.28526972864013994,0.09956654687941369,0.06796425491083397,0.3959395880344075,0.4803916392348049,0.0,0.2362603850631521,0.17936948404857217,0.2046507385933059,0.4195684183140838,0.45252482419873485,0.49366344458043804,0.5285534919167518,0.5395845855110685,0.0753726320377116,0.0475194629555043,0.0067562427742104665,0.2878504658007475,0.335092445208157,1.4462908775058507,-0.8033619409650602,-0.8686150869515726,1.2877467867465204,-0.7878463744407659,-0.9489720701909128,1.4396478305030802,1.0058996704065828,1.899518289604532,1.1489134960663776,2.5206757488629163,0.9453361684230266,1.6675475023323023,1.4932816624909442,2.450518763471212,-0.7395470611369925,-0.4230800418438202,0.4014801623390329,0.6724395277487485,0.9453361684230244,1.6675475023323092,1.4932816624909475,2.450518763471204,-0.7502789330883289,-0.27392471136206,-0.332749943415126,-0.6314545050310759,-0.508055206271945,1.2967024144758197,-1.3209922388313695,-1.0199584440945684,1.1721107547351983,-0.531820078475458,0.3913533748087937,1.5334449321977357,1.3171077172963712,1.9716766693693168,-0.1622646155897408,-0.4326634973692079,0.2615075270148163,0.911658376207245,1.3585015846083852,1.4101300650112174,1.069424391946088,2.341640794779079,-0.3609540925894347,-0.0710431231788249,0.0234151642105384,0.3362952220670464,3
0.350861920049089,0.07477220449783778,0.4726641389258265,0.08969920535789457,0.07470385332581525,0.09063986360824586,0.07571256408444091,0.4355322338830584,0.08791208791208792,0.10796062811290993,0.06852367688022284,0.6138203345259421,0.7002447361816905,0.08308999203610301,0.8367371896921227,0.23134615000389158,0.0984322400363358,0.003583181393330931,0.03898596000062332,0.5302183862881705,0.4701272142398728,0.6469354805463317,0.07470385334473281,0.09879140337422491,0.4146687416743132,0.014418327985058498,0.09792871606231918,0.33618915391125137,0.05500058771835557,0.7864196473003288,0.7724962984834777,0.9455346828937099,0.0965909081853693,0.6891218887429016,0.704888146331959,0.676582386692282,0.2587986775071349,0.4755513307116217,0.5244486692883783,0.06690325506576432,0.09005418303226354,0.6791260498086047,0.32087395019139553,0.10566099582002755,0.0777047439677977,0.6472677556623184,0.35273224433768163,0.09947917757264657,0.07940739085501164,0.8018847136184641,0.4985142002684767,0.0,0.19240650059494568,0.14965869746299543,0.16706542821723727,0.14930086271283463,0.10145092268818183,0.1106737338416529,0.7205107517916622,0.6786953556551917,0.00835433444075398,0.0034343268636232624,0.00018975127403233244,0.05955242981778629,0.04491180966232776,-1.2546349101769978,2.718101748126478,1.9722214612566005,-1.2033557219027171,1.9729194185416203,0.0790653555413366,-1.2391738098614522,-0.2704240601732666,-0.2159851097247794,-1.1531307052686413,-0.7946219461099453,0.2550164026640331,0.511378885231955,-0.937922521679732,-0.4788337204049002,1.5699276526251156,-1.695804874565458,0.5026419434322312,-1.6910381144794282,0.2550164026640382,0.5113788852319522,-0.937922521679733,-0.4788337204049008,2.3858544385428475,1.0680520399949005,0.9386765468333268,1.909879248246425,1.5107282002844225,-0.987802140667668,-0.9411376463602884,-1.331182402438082,-0.1088453879419059,-1.6932725855793649,-1.1884502294119663,-0.73375951788927,0.5307498075984672,-0.5907652182227189,-0.3517217668143147,-0.6853933209663288,-0.1792741507961447,-0.3643896229070858,0.2861111330494129,-0.7865182043999597,0.8032241975079859,-0.4083738302708667,-0.0743608124435647,-1.058322876076207,0.6971054754155899,-1.136376653887376,1
0.34426631261277163,0.07407996493100938,0.4797156002943542,0.11785207122743228,0.07401846402646524,0.1184127332469197,0.07446833937229375,0.4287856071964019,0.10164835164835166,0.12613163132172997,0.08746518105849582,0.533656138246592,0.7519672131526144,0.11547650650384922,0.6725526982440243,0.19932903778352254,0.046510679106481344,0.0017863635903294613,0.07456297550867179,0.6914704740666837,0.30871580268202325,0.5345919809151964,0.0740184640281065,0.1380843167376593,0.31937702952068564,0.018050221782750484,0.1408176397244672,0.36838025615134473,0.10591073463416267,0.7268090916671844,0.7098979395076065,0.9134221843134129,0.10282258118926409,0.6167883825798657,0.6537003857594827,0.5787447190895065,0.5500269249314678,0.5239881524828012,0.4760118475171988,0.06947092255859455,0.0852444045564113,0.4712393086594491,0.5287606913405508,0.11873688974944413,0.13575204664455065,0.48557346613261065,0.5144265338673892,0.11019779419753267,0.12280714140057267,0.8728800240691545,0.5031688150698642,0.0,0.2803310198915721,0.15189562447513472,0.1899415212480397,0.2836949084216408,0.4617055131752078,0.5036787416456812,0.7241206508791219,0.7089652633569133,0.14343311715611687,0.11570207640065486,0.02863816667808339,0.11941963934352796,0.21466269404950342,-1.0043713243508756,0.5477639394061025,0.7091586892345298,-0.5992527483516297,0.726605944210187,2.2083836480061234,-0.9910198460001683,1.2813908433927783,0.8976632719381418,-0.4831139102273777,0.3617029141491025,0.9292578679549102,0.5563087605813484,-0.5438034429713333,0.0242086796059713,-1.9621067647653017,0.192434698748323,2.2374153965509094,-2.1466712169231137,0.9292578679549028,0.5563087605813494,-0.5438034429713338,0.0242086796059692,-0.8591423830496531,-1.0997384395493477,-0.9587483483896488,-1.1863796362267072,-0.7032752305541515,-1.011661858024527,0.1226466620855859,-0.3580514212397073,-0.6493677027337288,-0.9236562061027486,1.554079056432515,0.3433266477318116,-0.9720192912886058,-0.3970226606900927,-0.7340698319105401,1.865963250913552,1.2740392264587577,-1.234007525120721,-1.2463287500328806,0.5519992745011133,0.1109353205394552,-0.2739528390595632,0.154868509371152,1.2840414053885758,0.8953790002067878,1.867732501902722,2
