ECG_Rate_Mean,HRV_RMSSD,HRV_MeanNN,HRV_SDNN,HRV_SDSD,HRV_CVNN,HRV_CVSD,HRV_MedianNN,HRV_MadNN,HRV_MCVNN,HRV_IQRNN,HRV_pNN50,HRV_pNN20,HRV_TINN,HRV_HTI,HRV_LF,HRV_HF,HRV_VHF,HRV_LFHF,HRV_LFn,HRV_HFn,HRV_LnHF,HRV_SD1,HRV_SD2,HRV_SD1SD2,HRV_S,HRV_CSI,HRV_CVI,HRV_CSI_Modified,HRV_PIP,HRV_IALS,HRV_PSS,HRV_PAS,HRV_GI,HRV_SI,HRV_AI,HRV_PI,HRV_C1d,HRV_C1a,HRV_SD1d,HRV_SD1a,HRV_C2d,HRV_C2a,HRV_SD2d,HRV_SD2a,HRV_Cd,HRV_Ca,HRV_SDNNd,HRV_SDNNa,HRV_ApEn,HRV_SampEn,max GSR,min GSR,mean GSR,number of peaks,number of peaks SCIPY,number of valleys,mean time between peaks,median time between peaks,mean height of peaks,median height of peaks,variance height of peaks,ratio of peaks,ratio of valleys,0,1,2,3,4,5,6,7,8,9,10,11,12,13,14,15,16,17,18,19,20,21,22,23,24,25,26,27,28,29,30,31,32,33,34,35,36,37,38,39,40,41,42,43,44,45,46,47,48,labels
0.5156881296243656,0.127364090367118,0.3137332984934945,0.2649309651027024,0.12719830799284457,0.3110859707865593,0.15041661598919415,0.31221889055472263,0.08379120879120881,0.12255744650013997,0.07270194986072423,0.3361995572848105,0.47279239569639675,0.22511282187417045,0.8033252656758376,0.2981993938676439,0.03605439016820294,0.03695890873701023,0.14625525270333203,0.8125555930982499,0.17062251142671855,0.49693608770764086,0.12719830795912646,0.323439199611806,0.24124331260046866,0.05506585167088296,0.1947750250420955,0.5371015096626945,0.30394165667624273,0.6940068759991339,0.6514828399144873,0.8170846885725216,0.3241525428275953,0.7256821220638754,0.7340782594013862,0.7258694324067818,0.30144459045298255,0.4504593437149166,0.5495406562850834,0.10999611337624071,0.15514816899617498,0.6540840191184376,0.3459159808815624,0.3230525411913597,0.27672884518854635,0.6350428076904183,0.3649571923095815,0.2808255032137148,0.24732502749320098,0.5331662932788852,0.12410664014141148,0.06775087679045164,0.05940804386636729,0.0628654149144728,0.26800216567406604,0.23680981595092027,0.2583668005354753,0.4923348987550798,0.37806709911589065,0.014277298261529667,0.00811550990414473,0.0006109038530105591,0.10671491001362716,0.10453648915187376,0.8802721690821799,0.08504740797635757,0.045760873705545935,0.43465450578380715,0.09946185352681827,0.2585174118656787,0.8841541372805346,0.5588415929246364,0.5170392499859015,0.48269669886995575,0.5916615883768864,0.573821827911573,0.5884999178287181,0.7181863377110174,0.7992167780860919,0.3110673721213917,0.16645286390740505,0.6458634346859988,0.7962034425120692,0.5738218279115735,0.5884999178287177,0.7181863377110176,0.7992167780860899,0.5401636875802843,0.3404730301453652,0.30235497491339103,0.9208497780269054,0.36296557555636544,0.33566953118155424,0.6602248797669068,0.44139169451154187,0.0370738429082304,0.33085366191028104,0.6041200287169268,0.4001663478868812,0.3806611454866574,0.4210880349656779,0.49186939210921377,0.39411359757007325,0.5046443722254748,0.6864570811009258,0.6875028710103301,0.40491208918555416,0.6350059671982269,0.6353879664003577,0.5443065582418555,0.45872736529328295,0.5577108939999053,0.44832712277312503,1
0.4670980808585079,0.04395283065354649,0.35590698412250166,0.10228525645095117,0.04403549743693998,0.11836496633585991,0.050788638051368316,0.3437031484257872,0.0673076923076923,0.09507391101849122,0.06852367688022284,0.29953203464160844,0.5204380542626458,0.07512609503583753,0.5110105581079993,0.2772523471003846,0.020028532278061114,0.003975214368531252,0.2411068880582765,0.8967901848840908,0.1015148146380006,0.4115993997325498,0.04403549745387555,0.12680064159943522,0.2190175844790354,0.011469314758991073,0.21521858187622753,0.3043194369432105,0.14476031861534416,0.6523397916884898,0.6411012605009886,0.8335403471805312,0.1287878797054924,0.5987125236552986,0.6415604219336779,0.5536228664322684,0.29973846009458693,0.32155044919324594,0.6784495508067541,0.03252764972891914,0.06232415961324204,0.6453069966805369,0.3546930033194632,0.12967578129563317,0.10573443589281414,0.6161896602581222,0.3838103397418779,0.10994569360749928,0.09478186169473501,0.5050269188871384,0.22154509867105682,0.17219949499102047,0.08901729397847823,0.13821537849573873,0.41959935029778017,0.445398773006135,0.48594377510040165,0.26521601648962956,0.17620875280499318,0.12120969491151279,0.07422418925885016,0.02675428242411959,0.32490641103958146,0.37080867850098614,0.5547070094191515,0.31464018709938113,0.29865325261755293,0.5156977856715165,0.3401316942989932,0.1602123584448279,0.5434988853586591,0.4632937100118169,0.40725415496996525,0.24964031694640745,0.1921307008798153,0.5072355982791353,0.48325398585664464,0.32840743412897644,0.4698398829429007,0.42652111128183234,0.34597752013144834,0.46652432726628845,0.4869590534088296,0.5072355982791332,0.48325398585664575,0.3284074341289762,0.46983988294290197,0.24642819213698844,0.506675000979923,0.5671696027773675,0.5615484548347328,0.4721726106376001,0.41945634497751566,0.5029718047387466,0.5388751771708498,0.39031848665134794,0.41228616572955423,0.9297715405526616,0.9872333162888158,0.7876210470909938,1.0,0.5874699308776633,0.3517619039200206,0.3578177341478778,0.5698522896425622,0.14632015214798155,0.9928160288587704,0.13083165171395794,0.4490810961781083,0.8008686595610252,0.540507407110935,0.8026183818410164,0.707607710186775,0
0.4411278955393594,0.122873038547609,0.3783740983641334,0.21792335426727022,0.12303566194983093,0.2414916529581192,0.1365186853223394,0.38155922038980516,0.12362637362637367,0.16266409278242377,0.1158774373259053,0.37986090194878447,0.5438569626702211,0.18051499867268386,0.39819004522724755,0.48372871297816866,0.041581280619632406,0.012451212312971685,0.2075632311132615,0.8763478064318754,0.12031857712259059,0.5179851039927695,0.12303566188151951,0.25480490312692833,0.2987460619018851,0.04392632934342418,0.15292061087247016,0.5020481938742369,0.20070553566987198,0.5088211806666759,0.48790227938017117,0.6321266538981685,0.0965909081853693,0.3910598512457395,0.48090529363146106,0.30171503750513295,0.2206995176499782,0.37595172561893797,0.624048274381062,0.09897103588096372,0.15899654739834992,0.8989090431671691,0.10109095683283109,0.2982041259902625,0.1656408940815314,0.8311449771613091,0.16885502283869064,0.2586230459844325,0.16245424318448184,0.5381661664527038,0.24339812991939141,0.0918032242688595,0.02174506580289376,0.08211221535349157,0.4152680021656741,0.5042944785276074,0.5502008032128515,0.16159368522140372,0.1249555492881755,0.09075292215818907,0.11209147408595055,0.005827368384971576,0.429851354103034,0.5562130177514792,0.6010073682991918,0.24488149046993826,0.3030659442742825,0.29791648060922116,0.19491127474364905,0.17064140009002887,0.5819798551630129,0.6485522659990527,0.5309370635150304,0.4131497729338178,0.5022646388373119,0.49027886753572153,0.46538095403177765,0.3499856748258083,0.4377375744951569,0.6870757241794283,0.3747327990417452,0.3842997117217257,0.7704256002617532,0.49027886753571936,0.4653809540317785,0.3499856748258118,0.4377375744951583,0.29374589451579175,0.27918004899366117,0.21857472068030206,0.39969559342153077,0.1590053776840596,0.3386662858355704,0.43325522189150095,0.5590860331043458,0.357413716559602,0.34247261792417955,0.4569022650067427,0.3667728733975464,0.35673498773181617,0.3438208906416715,0.6578051668915471,0.26815760858798,0.28855286262348,0.7386159670909793,0.5108681008411152,0.31156988272557096,0.3775049055832016,0.1818786491507211,0.24692735716782122,0.758964179720266,0.22135009108876713,0.3155643129840701,0
0.36142799486623955,0.08976386364224354,0.46146652941762933,0.18064681518306108,0.08987260709870716,0.18522859101589553,0.09214372569832183,0.4355322338830584,0.09340659340659342,0.1147899961373941,0.08133704735376046,0.4405835593431275,0.731747773361557,0.18529333687284313,0.6378414613952302,0.2782333236814176,0.028420599952403723,0.007536180559934165,0.17248428541672184,0.8500138320324825,0.14667935397219123,0.46209125157378805,0.08987260709731643,0.22083604212742686,0.25029637955814726,0.030208278104959328,0.1872286173216016,0.44479846410768387,0.20719219172197859,0.7460415186408386,0.741288231089318,0.9289150561547364,0.0,0.6930083229284985,0.7050112215700499,0.685628050555072,0.23566302651353155,0.5369842436634226,0.46301575633657754,0.08468333874585636,0.10208681775587866,1.0,0.0,0.27501442768334167,0.1191184449407722,0.9522976649284998,0.04770233507150007,0.23710783130476676,0.11348779773253967,0.7198961361822647,0.2568623513474343,0.1904555864102597,0.0551754603783957,0.13221430265721745,0.5192203573362209,0.5092024539877301,0.5555555555555556,0.38761950492073344,0.30531661169084373,0.18529283275735428,0.13097108377496908,0.05028049011428408,0.3546669172814561,0.3767258382642998,0.5443905301678056,0.3390310059638044,0.5409818411168186,0.8057447812640196,0.6746007242475973,0.27339013212492186,0.5376276630108874,0.3746010830473592,0.4079456564598556,0.5096044269570523,0.41929692197010404,0.3411571695721902,0.4738530842420365,0.3893794199495454,0.4511992413755289,0.7475869964287848,0.4963763270442314,0.2466306353046856,0.7818225733802942,0.34115716957219083,0.4738530842420369,0.38937941994954517,0.45119924137552847,0.17544313736461917,0.22999195126690183,0.1950733493048377,0.34605409952590094,0.12688566148369645,0.6738570088723836,0.271679910995094,0.6990375097118713,0.7450701721131259,0.6560666231328117,0.39213060500251046,0.41721447445227183,0.37223289531194287,0.4131703209251837,0.2785213296236213,0.507063681648303,0.6750152907578035,0.7818483194776421,0.5442248344498672,0.40962366277235385,0.36138614983540984,0.39537097023690676,0.6286409195197877,0.1840949515884422,0.6478333656620197,0.33742497875455657,3
0.41092570396269434,0.02966232734198166,0.40972726860674313,0.09327414143184563,0.02963050752425789,0.1015676043942017,0.03207961000525076,0.3883058470764619,0.0741758241758242,0.0975204442777822,0.06908077994428971,0.26441734662428457,0.4847229434084125,0.08229360233607647,0.5993166497774126,0.039841462065436414,0.010257451206014078,0.0007074561731635787,0.06698838675262299,0.6658258812291307,0.33361799696405825,0.31872975641036727,0.02963050753263504,0.11786332634745954,0.17126204363841052,0.008337277952932806,0.27121983007385475,0.26176010844605213,0.17002234382387574,0.7950843276092475,0.7609412975055837,0.8939600638773819,0.28813559268008465,0.6956411254189576,0.7094343987885656,0.685468629737124,0.36254319318518036,0.5422437160599151,0.45775628394008494,0.03019269767684388,0.0336235673819544,0.6006021097314916,0.39939789026850836,0.1160916473409139,0.10271927261505495,0.5961611727157017,0.40383882728429826,0.09853132548147894,0.08778397646991445,0.8431188883733265,0.35136639124193336,0.055399855456351815,0.04540865056683652,0.05056718088283965,0.17920952896589068,0.3717791411042945,0.4056224899598394,0.3842817602991868,0.23816538117251781,0.012074154928851052,0.004326311407659358,0.0005736613828711351,0.07147220525351253,0.16469428007889544,0.7072762747918333,0.23099036629422298,0.19376460564304895,0.36808100034452584,0.19180883850769398,0.22904403330315426,0.7028495680100217,0.29638422704786105,0.32099056723942115,0.5284778675705164,0.3666384448440533,0.32374466546705183,0.3678618789466005,0.4450145534719229,0.4091093669115182,0.38136401516852614,0.28803799113981937,0.5362138441086421,0.8074279771530453,0.32374466546705105,0.3678618789466003,0.44501455347192276,0.40910936691151967,0.4141545888541233,0.41270969472472774,0.36151680858618507,0.6462838675777256,0.3533296606962565,0.30320468909637943,0.48595923749537495,0.1096641886180722,0.29438376625886664,0.3207173486533949,0.366292710252066,0.31348846476992437,0.27975493567240994,0.31544941722026365,0.15511941056113027,0.6976503870946791,0.8507986522228544,0.7981924224723944,0.3755351867916488,0.30794704443110693,0.377959954167764,0.23172453063201168,0.4358388966929587,0.25276200609624466,0.40474827412382297,0.25377379766493396,1
0.4953787037798991,0.04639745422826837,0.33039486669280593,0.16161749307912437,0.04632860843416266,0.18918413025918612,0.05525019195065455,0.32533733133433274,0.1401098901098901,0.19681856913931117,0.12367688022284123,0.3235594370445381,0.5763618318956395,0.1513140430050438,0.6459998074038371,0.126903837396929,0.010531027364875666,0.00666227371938345,0.20138959721454466,0.8690043201124712,0.12389210898474035,0.3222639480331847,0.04632860843664182,0.20427205496496986,0.1413776448324388,0.017294327844294043,0.31837339466401005,0.36218845224997076,0.3075627704266035,0.3422258473250228,0.32857005606796474,0.6314307091505749,0.16666666772916663,0.5767972726461736,0.6258597636286605,0.5247644734059582,0.514625585011161,0.4832300506873066,0.5167699493126935,0.04262586167250963,0.056089931989147336,0.7354754779713061,0.2645245220286938,0.21885845705949092,0.15903618792723326,0.7196671279708586,0.2803328720291412,0.18422322103991093,0.13671681761270474,0.8037418420187337,0.26798665985306147,0.0784960034050996,0.06380157729692466,0.07004784851424621,0.12723335138061723,0.3901840490797546,0.42570281124497994,0.2482696429198824,0.21336954789027723,0.04137889211334027,0.018098942139035682,0.0038212913157971546,0.05377253575176605,0.1816568047337278,0.39979187796347637,0.505241035833973,0.671031486893642,0.5461000884946385,0.640011860680779,0.28264023862762183,0.40151856295887434,0.24213657218985432,0.22696298020488062,0.44508012085878335,0.15539222846629153,0.29422113285611784,0.37351034223293744,0.726571078891322,0.4182180592712438,0.2695419375867088,0.6000397627340838,0.7042621971732324,0.7722030862841338,0.2942211328561169,0.37351034223293805,0.726571078891322,0.4182180592712428,0.6489157262741803,0.3223814374576242,0.2223423024080204,0.4194955606191753,0.194337065504459,0.3767877927134036,0.31745583270679195,0.346459463209875,0.40614722469819575,0.3900500896797891,0.2996032120575438,0.3568989335006231,0.6998209647272118,0.4132644364652376,0.4149529150893946,0.4624401420103943,0.5819846929220173,0.8243467577398389,0.6506135784253635,0.3400460801922025,0.7732216794894777,0.6178251504211627,0.3822928803634025,0.2569914842788804,0.30682731661111806,0.239465295769902,2
0.5489217057959102,0.04188063319473587,0.2848143951716101,0.17499157820840483,0.04181014287747101,0.2142424036926303,0.053124934925888136,0.28185907046476755,0.20879120879120883,0.30450377081093866,0.1988857938718663,0.33829092605811023,0.5426300784256214,0.10034510220334486,0.6358851232414904,0.05971422973686651,0.005267664859121974,0.0012146488348289937,0.17602811775291327,0.8540515326638408,0.1437953897260645,0.23377270458104205,0.04181014288276647,0.22267577991418352,0.11486224335813751,0.017350242649634952,0.37211784556126803,0.362654686022011,0.38084360728408606,0.531288538071854,0.5056549989300382,0.7126006587800109,0.07456140292160088,0.5738999129511688,0.6198380915279758,0.5273503452111572,0.3803102790161983,0.426243456205162,0.5737565437948379,0.036030812015797664,0.05393571746706482,0.5941307316536157,0.40586926834638415,0.21432910390516885,0.19866397783438824,0.5842656427624794,0.41573435723752056,0.17957744283823876,0.1689085325978547,0.6784007021603253,0.21674119308554207,0.14298750417876105,0.05954989303016091,0.11616477756920933,0.41093665403356794,0.3570552147239264,0.3895582329317269,0.49399791537353455,0.30333165749040475,0.1012302406959166,0.09261929796475263,0.012547715309890507,0.17453753739642563,0.1670611439842209,0.7861044532246266,0.12656063203533743,0.20762819832495966,0.8651914674281946,0.3376233415975827,0.24337262965047385,0.7920430802488487,0.6020767681884347,0.6129923795107199,0.45539265319339695,0.5463508057335404,0.6849657433869244,0.7568371064091113,0.557061863339902,0.7633174431323672,0.6294117415211253,0.5048120718066972,0.4052807564630826,0.8187989729138959,0.6849657433869234,0.7568371064091117,0.557061863339902,0.7633174431323662,0.22248557661548007,0.29250182546132536,0.23009942488245277,0.40916537774509404,0.16703530673415037,0.5495758116578785,0.5713865048496407,0.4380530233611969,0.16171725894969322,0.47463273471323175,0.527853725402085,0.42355471976236975,0.31159236468929913,0.3758682763526222,0.5524517149658272,0.500849815724165,0.4559268007027706,0.8860326571086655,0.5861182922884265,0.4136578242434227,0.4892043013164428,0.5102051804643314,0.6441413189555589,0.48680596547737265,0.8801055587854878,0.9095156093788742,2
0.6430671131986878,0.018514063176617662,0.21199070214306148,0.1861265814547896,0.018533670095928243,0.24561285281113537,0.02897265337654374,0.17991004497751117,0.25824175824175827,0.4195258436215051,0.215041782729805,0.17247746007036965,0.3246454792277327,0.10379612423679321,0.6558424274214023,0.02540735308984065,0.00022994705661958303,0.0003709612027833035,0.3362300745199467,0.9322089735592792,0.06616799908284891,0.022361507255489244,0.018533670108524705,0.23927192458839314,0.04318045031550109,0.011759288676820228,0.6302000903677442,0.3077469284853498,0.6583090662669125,0.360312326945732,0.3631970000269966,0.648079471987774,0.16346153872716346,0.6328812759041575,0.6670111880791703,0.5967243674696974,0.4572258816739865,0.4799293104957256,0.5200706895042744,0.018212224276568937,0.023522098003834098,0.6727125240841626,0.3272874759158375,0.24395549232606173,0.19971194174005727,0.6640077807990186,0.33599221920098127,0.20206582883156565,0.1669110955440273,0.4931354480240781,0.10793686514363432,0.09000447615525695,0.05893146341765111,0.08002387504231327,0.39577693557119653,0.6969325153374233,0.8192771084337349,0.37373370653612376,0.2656083309830658,0.04237973128192034,0.020548542747292103,0.0050851414683915535,0.2575536863869179,0.5266272189349113,0.24282916943105048,0.7752618477245444,0.39788510142155437,0.0077251268183354815,0.3022423666513716,0.3983572572300256,0.24187749073832626,0.02591883044022608,0.29862908676852107,1.0,0.35806613461423104,0.0,0.05644663418253487,0.309047786638389,0.09809510979547931,0.681956824648942,0.7159591802449594,0.351943715461308,0.7826631719175351,0.0,0.056446634182535094,0.3090477866383887,0.09809510979547931,0.722176830184739,0.32020546670972955,0.22160106067914423,0.28745070855027527,0.17345924997422302,0.9241701434098959,0.17253288261664684,0.34589297097091054,0.5469390544768914,0.3320353688406621,0.1205894053682483,0.2599067687420785,0.6603537751177289,0.3175536382800722,0.43072864613447703,0.5083821001111501,0.6114072054125241,0.8120050414570249,0.6970447586849232,0.2395418575941436,0.7125345685213715,0.4021176386465681,0.5816207545728346,0.07828539189816147,0.46558870550588494,0.19831989306005143,2
0.46027649941161264,0.15280340589124197,0.3648584944320893,0.2715745144557027,0.15266304632983185,0.3037932907278421,0.17165283404534604,0.3654422788605697,0.1785714285714286,0.23814773661872013,0.1646239554317549,0.33696713416261875,0.5095221485704454,0.2758162994425272,0.5718194253626161,0.08655116772773129,0.028657229387659144,0.014234145614768145,0.05180738050107696,0.5928498653173954,0.3913514963514132,0.4632993144136921,0.15266304630574548,0.322112547708164,0.2952150278404988,0.06412005785861288,0.1551242827034272,0.5608764486918769,0.2534715310490767,0.5335058035750023,0.5007047214489263,0.6993388595170713,0.17708333273567706,0.8276110324617885,0.8057307627507859,0.8551401138694277,0.48907956314517254,0.6105689116421531,0.389431088357847,0.14975214983704246,0.16193189663485338,0.9742854428158254,0.02571455718417459,0.38727996296946815,0.19220892767926442,0.9310914595688624,0.06890854043113753,0.34081035216190664,0.18310123557277166,0.6206938792747845,0.14076315603387318,0.1565841731868703,0.0,0.10702730409723434,0.40552246886843535,0.5754601226993865,0.5836680053547524,0.3719809026354519,0.32595860259224285,0.1916721273734231,0.2157102082908189,0.03596874037245474,0.1995990163369516,0.2879684418145957,0.24041649384271907,0.6849632682988969,0.7356446006891556,0.4401203640038804,0.709585643504112,0.980569842988201,0.27268146414258787,0.4681194744260721,0.2885155781320905,0.2504202694456883,0.21417378432792958,0.4664847351534732,0.32308806924955674,0.1058271138850615,0.32066805938595844,0.6111224029661781,0.6372160641099787,0.5365187329708824,0.8070397085440641,0.46648473515347344,0.3230880692495567,0.105827113885061,0.3206680593859564,0.24234085821425855,0.2699572806698938,0.21819703949628394,0.3909183683700688,0.15418742025400511,0.41912220217584467,0.2712279289274806,0.5677777065595795,0.5156959992501947,0.34332408699386485,0.47867026066804824,0.4274040152113042,0.2960084410554817,0.3970222663985339,0.5031293178597356,0.42248874145889576,0.5379747221791584,0.8515928491023639,0.8170998727108898,0.3908185140158493,0.686603192643948,0.5554252230433819,0.48467125356816465,0.6792133941155988,0.5446853764401812,0.582295950448451,0
0.3971753693072857,0.05037445042596746,0.4237106323448573,0.08775228672660933,0.050339689676436775,0.09406466742471845,0.053532428319068966,0.3995502248875563,0.05219780219780222,0.06779255186366534,0.045682451253481894,0.238215058198594,0.5294865123188438,0.11335280063711178,0.7466063348010892,0.2827209336931281,0.038902907214243165,0.006743947255883518,0.128363141103335,0.8016854771159537,0.1958379380660664,0.5081450191463982,0.050339689685055374,0.10409210483356217,0.28694557712308677,0.01095953482152116,0.1604496191837647,0.29811175672079826,0.09288889236668291,0.7448051958324221,0.7329971775789631,0.8850040436320599,0.07456140292160088,0.7463994962359384,0.7509224190433816,0.7449660929422581,0.4027422060414825,0.3901150133808766,0.6098849866191234,0.04121680908973237,0.06650399649182587,0.875843260253758,0.12415673974624197,0.12926984157529942,0.060114750769841824,0.8163029958026102,0.1836970041973897,0.1113019083239192,0.06031224313257962,0.9063801126582929,0.33612673907167295,0.04483584155583756,0.04262117158277977,0.04482208316588311,0.24526258798050896,0.07779141104294479,0.12744310575635878,0.5755325752163678,0.4580538558693333,0.0028355418901474506,0.0014754392603026961,3.3594558404788816e-05,0.11423335369578498,0.059566074950690336,0.6385844711583549,0.23971863959034817,0.15485483941215988,0.3399703747312246,0.1628307638782412,0.2256886025129592,0.6342316068037073,0.5252843672759436,0.4342476228235673,0.35578577069486295,0.38837537435538816,0.7408733509018086,0.6380341985934119,0.3811030473220825,0.6901111208571694,0.687485850755134,0.4363872999474807,0.4151342926093594,0.7807506802366555,0.7408733509018096,0.638034198593413,0.3811030473220823,0.6901111208571716,0.3269308993977124,0.32447408898371893,0.2135296412733072,0.26392978463747685,0.17024727835418668,0.21663694725339774,0.8428003711161343,0.6841678259946146,0.5740173167438922,0.9202246077731011,0.6370928966051808,0.4114256522753818,0.26043541063863196,0.36980942644792797,0.8065592439770632,0.8128865652979778,0.1946716267651773,0.7888483208624428,0.3576342155399427,0.4200698834664797,0.42607345941893277,0.35288834078967607,0.2683117984970207,0.42321581742642633,0.35812745118101896,0.27580017480185537,1
0.3937051126594029,0.06843907666546047,0.4271417743461562,0.13109337499222723,0.06867107721029349,0.13928538292234047,0.07255237051492414,0.41041979010494745,0.08516483516483518,0.10828312950762997,0.07883008356545962,0.2760727055962307,0.30696721304588737,0.11388372710379613,0.4021719456795201,0.22626070967524534,0.027336801227310022,0.009054409929933907,0.1453560259398855,0.8213600103498623,0.17372325063352817,0.456433051760717,0.06867107721969795,0.15889451987436815,0.26434879558609803,0.01889129882144941,0.1762933638776715,0.37500195751775256,0.14648544267186514,0.8067045462278192,0.7825127144542191,0.9134221843134129,0.3863636369914772,0.5252799688347141,0.5921614271253433,0.4518505670705282,0.43060071779214315,0.3693085315288325,0.6306914684711676,0.05472459291279186,0.09090680841745302,0.6367791255868271,0.36322087441317275,0.15979770385232905,0.13510747940164256,0.6081132630816478,0.391886736918352,0.13857251846048907,0.12341814998287218,0.5919862433443506,0.2803408595106983,0.1508667734358807,0.0446521127537062,0.09018777230342963,0.41093665403356794,0.4171779141104295,0.5448460508701473,0.1900640612739644,0.15542421306912238,0.16991131836063705,0.15704212520761102,0.00826359299416476,0.42201964193411967,0.5463510848126233,0.4508716457543552,0.34549046232800756,0.24389175415162032,0.26084843547218933,0.14137774735301992,0.2825495513089679,0.43693619974660247,0.827451078291668,0.9481210065571393,0.5711889089578694,0.9826201656441352,0.5753049913054309,0.7630014311223885,0.7347950073113086,0.7413049094627238,0.49808874127957264,0.661964971598721,0.5992806042155252,0.11553528617004893,0.5753049913054319,0.7630014311223892,0.7347950073113088,0.7413049094627249,0.2181404352800952,0.25304887207632026,0.19293086114697788,0.2237599094958252,0.12527967567367831,0.47426943392980053,0.49533334283517466,0.43145563069636284,0.5178018640938863,0.39537827493915734,0.7259587560360817,0.5967150907938535,0.36619089058456056,0.49187975315167676,0.45520025401096176,0.7786521425991743,0.562781437335558,0.6414491066894608,0.677010360785113,0.6005853248816613,0.550773009743324,0.7937622339523501,0.6453123091210404,0.47155937202647286,0.5368948113524383,0.4318585172225382,3
0.4357312912395357,0.02502894790755869,0.385334283143712,0.06467291866847467,0.025190052744129113,0.07352823489647095,0.028167939970489497,0.348575712143928,0.1002747252747253,0.1382950178711021,0.07827298050139278,0.20285777638717706,0.41978650397152073,0.04194319086806477,0.6525892408333436,0.07366850231988913,0.013346033936808456,0.0009859629326288066,0.09469519088715857,0.7436494444314778,0.255755744836356,0.3545562679444585,0.025190052754690974,0.07827666085668426,0.213740963647227,0.005565503231976577,0.22052144983102054,0.21164393056741315,0.10171134292806072,0.7602537010308118,0.7758819388820181,0.8366753317916324,0.27717391404823366,0.5896874515012547,0.6367442316955982,0.5376426167315573,0.3231806918698541,0.45581289094040633,0.5441871090595937,0.023175989926185473,0.03241033752810004,0.7109384239275955,0.28906157607240446,0.08794726384245774,0.05719018330881118,0.6890716651943902,0.3109283348056095,0.07449043718021217,0.05083760194303998,0.3062150909539257,0.374494769206818,0.11342995798949537,0.052034197710242716,0.08680967361047408,0.4325933946940986,0.34969325153374237,0.3815261044176707,0.28709288299155605,0.22545094480754374,0.07497906100895556,0.07626362885274282,0.007054735902464816,0.46431088764625716,0.40039447731755423,0.6603202463415965,0.23371599252693626,0.21857997285845288,0.47516311015648366,0.19840976666930052,0.1479695704265485,0.6690060484128593,0.46580462252098737,0.48446949001164374,0.396263473964916,0.36571998303371517,0.3202298028231959,0.31373205215735034,0.24719226946704614,0.3027531680816907,0.12032133901574016,0.9108925125449223,0.9721152623703753,0.47843664021369703,0.3202298028231956,0.3137320521573505,0.24719226946704578,0.30275316808169084,0.6633725841125305,0.956058908520355,0.9140641066847672,0.5403866267816635,0.913818708392593,0.5304585836926031,0.5270122352222028,0.19476168958776324,0.3206264593496654,0.32061865842959614,0.37041503430938466,0.2864718111547394,0.10093484546538067,0.26726523551580306,0.24534635602840696,0.9430159776909606,0.7735096015845565,0.0546654662095617,0.4464971876816148,0.29140732303841055,0.45748406404232533,0.20240565117316087,0.4684810066591598,0.19024706385070947,0.5181745739526895,0.22997942720565903,3
0.4471788575146256,0.022198439429110962,0.3743060312723493,0.07590614810096595,0.022169161621267686,0.08696252506972435,0.025536922539477064,0.34707646176911544,0.07142857142857144,0.10007204199968503,0.06462395543175489,0.2067281691791969,0.49320069325403815,0.0682240509689408,0.7056812467309133,0.05584827069180379,0.01459124484890885,0.0009859629326288066,0.06612318700009365,0.6626996619027311,0.3367101378793885,0.3669224216822018,0.02216916162455429,0.09628574607540867,0.16753485323204814,0.0060018574075785015,0.2764875980890623,0.2206389196107017,0.1487624242030758,0.5766720073886585,0.5603732499891464,0.7610238855181168,0.0,0.620701600327791,0.6560012233444672,0.5849995976623381,0.16177115853931157,0.4085547919817415,0.5914452080182584,0.01896214669772826,0.030653371923433044,0.7163925226450333,0.2836074773549667,0.10663513378827277,0.07178105288180495,0.6948890745961415,0.3051109254038585,0.08892605833710199,0.062252855069354913,0.8049857619914731,0.31766232502679126,0.33275178014505535,0.2653797679932675,0.2715268355689412,0.14889009204114784,0.26993865030674846,0.2583668005354753,0.8282681594778283,0.7576118012041544,0.20129754347838408,0.19030978994469397,0.042973557575333894,0.059254734270006104,0.10453648915187376,0.5996285371672987,0.2604383819120687,0.2008449781351693,0.4003681422029358,0.20855891515874941,0.35754226240423237,0.5960282164119668,0.5789597964419138,0.6761998137145053,0.5290267386948377,0.6834305159343734,0.46983215479773055,0.5398378820009274,0.46245355907118013,0.5188305416680933,0.44958579114164465,0.3260336033608173,0.5039997381791665,0.7797165209355629,0.46983215479773055,0.5398378820009255,0.46245355907118013,0.5188305416680941,0.35332235113862287,0.34360831063093183,0.14345686692259696,0.2443924452267857,0.11536972982127208,0.38892172478800546,0.6840965463571743,0.5841324551555164,0.1955523038166023,0.46980455509299907,0.5536521250501172,0.3470583817148505,0.24736214384765332,0.3013503650975832,0.52594623894097,0.7208260180002514,0.5078571862384993,0.8210514912374156,0.496087988675126,0.3359909862269522,0.4606439417871951,0.35005259247372594,0.31967299157551926,0.6494189596473142,0.3249978663099279,0.4236759880546231,1
0.5365282034032819,0.01757302570358594,0.29477756693164137,0.011754444071252937,0.017630716229715012,0.021804483830319486,0.023782681306385098,0.26761619190404795,0.0,0.010986311031422571,0.007799442896935939,0.1971976387250072,0.3905447269677116,0.010883992567029467,0.7127601809567732,0.12798437880677868,0.05382972154288814,0.005420835964582435,0.039788269300689134,0.5339229925635126,0.46373669166612097,0.5563400307822031,0.01763071624985231,0.009475640949003244,0.38597400461442016,0.0015285139036562492,0.10901088930384553,0.08977825098996917,0.006951876938532282,0.692118827706048,0.695179926982593,0.9076361487337616,0.049418604780886624,0.6118089046036532,0.6503067307221793,0.5716911305338512,0.551525394166505,0.4756936731545107,0.5243063268454894,0.01730053172002269,0.022620609456904917,0.5512422329719168,0.44875776702808323,0.01095226096211871,0.00685708651199167,0.5460532412561344,0.45394675874386553,0.012412310566046962,0.009502366810419334,0.5576311861812568,0.5390315653273792,0.2867257254402732,0.19127946018464115,0.21460004751258033,0.3069842988630211,0.38159509202453984,0.4163319946452476,0.40512802495305683,0.3314643597258157,0.12456851805824963,0.12807318902975287,0.021898035984373277,0.24032391961530633,0.3175542406311637,0.6897117211555648,0.19515532101020855,0.2269781196757409,0.25942217471147067,0.12641528190790952,0.1710523156059251,0.7366903252571053,0.3706620511780804,0.44907351110427424,0.6943774898343111,0.4915732586116802,0.6206461363117458,0.5351801713191064,0.6995240738586528,0.6166846732779144,0.757743461114579,0.6025548779239039,0.25145467004734723,0.7565926863361423,0.6206461363117428,0.5351801713191064,0.699524073858653,0.6166846732779149,0.24443731778567912,0.75273634143941,0.6084455812085603,0.26949368391128714,0.305607050271242,0.3484713062070454,0.576089098316785,0.7253937634430984,0.14657162304899868,0.5058802356980375,0.5417986223708909,0.36978048273214004,0.29861282140026646,0.3609770855338841,0.7295469756271294,0.5935234998880519,0.38047499432738413,0.4870958611465196,0.4712936378092797,0.38469096889531085,0.5719822775629486,0.4555048417908906,0.698028444176501,0.139295810811977,0.5471975259869066,0.14582149660480748,0
0.48660972021847426,0.01324077703017925,0.3379344953858666,0.010650918063570394,0.01334056140874922,0.01773252930196182,0.016967801339507232,0.31034482758620696,0.013736263736263743,0.026433365401431735,0.01782729805013928,0.07603778178875618,0.39992067689412003,0.0,0.5830639948823675,0.22682454457321283,0.05925512292869236,0.00853292439938098,0.06625750593984263,0.6614448688544476,0.33545171397974183,0.5706766203624084,0.013340561418919442,0.010190802765602622,0.3396969939694983,0.001231098393937711,0.13005111804283376,0.07578691908545454,0.01290211668313955,0.7545454561433634,0.757738384737865,0.9707659316788331,0.2833333328020833,0.5545580409056146,0.6069350567231875,0.49945525058709395,0.5401716068771494,0.4566006293342272,0.5433993706657728,0.01305845079497835,0.01821486676315641,0.6567584647103905,0.34324153528960943,0.016699372301116136,0.0025880112393574517,0.6310682454100128,0.368931754589987,0.01557492422376041,0.005226493505696962,0.4609539974681007,0.5092645510309991,0.32370459049821576,0.25279205417977574,0.26325417107206345,0.3416350839198701,0.3361963190184049,0.4591700133868809,0.3099535058029911,0.26649274687005675,0.2178155385861033,0.13783625970926008,0.10770954872274914,0.35623325971523895,0.4635108481262327,0.6308786328517237,0.24606082981501678,0.5323228147002369,0.7571296395172491,0.5097376259733284,0.16763109715746696,0.5998048976905483,0.4219405957822354,0.3910143769068414,0.34460414693553487,0.24936672105236865,0.5716006252850394,0.40212478860380046,0.29214968778954753,0.38820884542322254,0.8094410020211669,0.5993945800116933,0.13646747071868598,0.8204336095571698,0.571600625285041,0.4021247886038005,0.2921496877895474,0.3882088454232226,0.2727885151492758,0.13310260183321204,0.15957049779975274,0.36289798728820866,0.051548177154185415,0.4423767639220965,0.4523529291687528,0.7624146352536911,0.5498167593514367,0.47236645672528277,0.4404752523153128,0.3809880945503414,0.37837830292263136,0.37344230309897886,0.5930540612798972,0.936051643672172,0.35813730162374724,0.7548066222091963,0.5016235058689207,0.37873275029310727,0.6289268748064003,0.4746800610457783,0.6837373303655042,0.09817548392234349,0.5964863829461248,0.12730064985051714,0
0.4873162937711355,0.029238911113737463,0.3377676870377465,0.14989534067629817,0.029275761218414197,0.17453537299649435,0.035199787101473236,0.3193403298350824,0.1675824175824176,0.23578834185060843,0.14818941504178273,0.21224307798207426,0.4610036561344011,0.09211574196973721,0.6897220425688838,0.05098611466058407,0.0030940539723118147,0.000448551062458367,0.22668925929235936,0.890063300218141,0.10921385380910043,0.1740363888415002,0.0292757612381224,0.19099451135642426,0.09968001776497738,0.012230667827313016,0.40990293152756363,0.3131679980029791,0.3668507551612459,0.4638848930572289,0.4600546289856665,0.7042043903218498,0.0,0.7411591461611575,0.7479887490812749,0.7359703978347807,0.5994682123729107,0.6411004997074229,0.358899500292577,0.03332513366739269,0.02825896564810495,0.6083362595457542,0.3916637404542458,0.18659250203984717,0.16777061388391049,0.6063952270446226,0.39360477295537727,0.15645556749362347,0.14075123328653014,0.5786295513926052,0.2098715338227189,0.4197480977368643,0.2863860162512426,0.4048320436638268,0.5690308608554413,0.5656441717791412,0.6171352074966533,0.42280440816517734,0.33781008203455504,0.20600733311166933,0.18773667255812282,0.024436528761309285,0.3875601083908964,0.41814595660749504,0.29035589599292655,0.6693388808442111,0.5599453569182973,0.3911018758660334,0.4376318219724577,0.11376367727291992,0.3158983447155064,0.3411780168222037,0.3936085901198451,0.49077989527839744,0.3299255694309581,0.3730008824961972,0.4118254675562655,0.43040269372839507,0.4002398460362,0.2606915802072871,0.6863712428697399,0.7970349985214484,0.7431366258541736,0.37300088249619845,0.41182546755626576,0.43040269372839507,0.40023984603620044,0.20190542810080087,0.1840314023487898,0.003296286466027254,0.2729137074245678,0.0,0.49890674721061556,0.2449551870755331,0.19383791721340093,0.33192552183339663,0.259035322852176,0.2557260226202839,0.27898522806334014,0.27640055677714803,0.2698720951783017,0.6930356394742307,0.735339493169513,0.2217077816776324,0.7075832411926679,0.48700678994856084,0.2590343448907797,0.4360392881444728,0.2924621013103722,0.7332284897615519,0.22804599897771693,0.7235567761558444,0.34384415207750235,3
0.41624729458301735,0.02897777473451995,0.4044489985205145,0.08069896010396578,0.028947604565997497,0.08875214322548161,0.03158956976458579,0.38305847076461774,0.0631868131868132,0.08404953745121202,0.06350974930362119,0.23333638951840355,0.49198501599157096,0.07061322006902043,0.8013574660198359,0.055074976300123486,0.010255317633067125,0.0007066394377985781,0.0913672489008576,0.7361777689467554,0.26337049563755877,0.3187019236844141,0.028947604568647776,0.10136271808298218,0.1921195447849724,0.007329920868478406,0.24437239868308272,0.24528821086410701,0.13687580513862166,0.6608062536573712,0.630217808293004,0.9045020463600411,0.08388157855242598,0.6399051387973027,0.669371637551778,0.6113524406148878,0.3740630557194238,0.4583365029395654,0.5416634970604346,0.026479966096947565,0.03677872680310782,0.6123127530523126,0.3876872469476874,0.10163154933667876,0.08663491880028665,0.6004409487625818,0.39955905123741814,0.08615832120237785,0.07518449144900766,0.8552801980149731,0.34098597270334546,0.43122199032639463,0.20306651825248512,0.2848224451280283,0.26908500270709257,0.40613496932515336,0.4431057563587684,0.4214380799575267,0.24136429964071562,0.1868369397714868,0.16245527128005852,0.041241248015120045,0.10702817850038376,0.1796844181459566,0.3652528195341106,0.5544012854924768,0.46170753781198626,0.6459357388895709,0.5953879244643323,0.31937219775378745,0.3694273396970584,0.2608143612293221,0.3514775986105113,0.7861501769139688,0.4136643723508076,0.1648138753526841,0.2858306761651313,0.5502024504436853,0.3502998638771616,0.420530791309974,0.4004736900882878,0.6263336034379574,0.7882886649561056,0.1648138753526846,0.2858306761651314,0.5502024504436854,0.3502998638771615,0.3868781161341842,0.32444938091317077,0.5190767220964654,0.7346964495651918,0.5326644972599158,0.5132973108920786,0.24305564679204272,0.17468950340492784,0.32514430441483777,0.23017392342791468,0.24401532545308213,0.270215583525934,0.31755425681216276,0.2984986560057661,0.43683038447633,0.5915627408375472,0.4845641638765561,0.8770926307611713,0.5075203865950911,0.22915645052788547,0.401502171866876,0.2506352757825182,0.45831810938489514,0.47997203796903953,0.35462964111542633,0.39889321570603087,1
0.6330130559607987,0.026366443312305296,0.21921807681606575,0.17243260006195515,0.026267307287338008,0.22669808944941844,0.03845383533822729,0.18740629685157428,0.18818681318681324,0.30802891131359944,0.16016713091922008,0.2901483030463537,0.4546627251328482,0.1053889036368463,0.8580047404059001,0.021238560466965848,0.0025651109603339294,0.0002427337504781986,0.11875075631503527,0.7889684199079048,0.21061997863069165,0.1551381962910956,0.02626730730237762,0.22008590300327235,0.07310472350654358,0.012993881785905168,0.49369931914543874,0.321577057444848,0.48930382998283384,0.33425484446259934,0.3258085360735581,0.5702592079244132,0.0,0.5110690002769052,0.5828332015842816,0.4274351088025923,0.6298993693759845,0.45553788305067033,0.5444621169493298,0.024129462286598787,0.03376863309834683,0.5259947861784091,0.4740052138215908,0.20000111496931428,0.20722623516832436,0.5205145892044966,0.4794854107955034,0.1662936307964497,0.17398242930523145,0.8162164873052933,0.24179037138012605,0.37189964347541615,0.26988597943023634,0.30780539099184856,0.40877097996751494,0.4257668711656442,0.46452476572958507,0.5193999086511998,0.35020416671775945,0.15027079593408424,0.12824611234062072,0.038492435713796014,0.1714048525288599,0.19723865877712032,0.7526995000401366,0.11956114471966839,0.29100611530153037,0.9603200282568188,0.5759697656969245,0.2596685816924589,0.7431431266823044,0.8378778893163519,0.8157667875582137,0.46984125882440314,0.8911875459633672,0.8036310895051619,0.9384676847120663,0.5171936654572303,0.964548093973173,0.5056996714774576,0.8844000213641097,0.5250912943139208,0.7931083624784772,0.8036310895051657,0.9384676847120671,0.5171936654572304,0.9645480939731723,0.5207109928025274,0.2499963249213479,0.3121413879427437,0.6491914783024512,0.30192503761737166,0.3441194354838168,0.6073377015791483,0.42444085839238754,0.32162338354909575,0.4406754241312312,0.809482957891903,0.6100935763099551,0.5176036918529143,0.5864468732748279,0.26273922397949556,0.3083014413292081,0.7579694622510615,0.6859421768446757,0.5864878316786319,0.615011586079579,0.41936798632846417,0.6587580306452319,0.16631821487766113,0.6429270414595712,0.43233648569808913,0.5149142685988208,2
0.6679480120139132,0.0634173554191154,0.19438163894880967,0.18882559163415502,0.06331587689994779,0.25381140897254206,0.08753954461385949,0.19715142428785615,0.20054945054945056,0.3232517743815011,0.17827298050139279,0.23814207966045547,0.3575054315927094,0.2097159543403239,0.6734096352756519,0.11798151901670934,0.02725592965867713,0.015154116329904897,0.07511352576532922,0.6828900317092661,0.30295620671809276,0.45600233766531495,0.0633158769062856,0.23671621500430828,0.16285134308137394,0.024392396765365816,0.2833331271995977,0.4126809419869817,0.3144034669966629,0.5534501652478828,0.5325279363733605,0.6781004348246085,0.25000000053125,0.5799239031978649,0.6468064345711988,0.5035641450042245,0.5241141072856883,0.23255151878971486,0.7674484812102852,0.04096828985156177,0.09311123865007079,0.62235454095774,0.37764545904226,0.23263115107609633,0.20650506685259476,0.5960542806768351,0.40394571932316486,0.19527110300192618,0.18060866034766687,0.7793698661021147,0.2030853301292091,0.2797066047794192,0.2861130503734529,0.27858746080637803,0.3795343800757986,0.39263803680981596,0.4672021419009371,0.6188061414501036,0.4688293215288592,0.05082575986714032,0.02764966117646596,0.005692752702902963,0.16044045549237976,0.2011834319526627,0.9404162185534859,0.0258049549833832,0.025470138278385013,0.2810210235376375,0.0,0.44542061862933396,0.944394506763909,0.5073857309732087,0.48337126760133114,0.4086525199371189,0.4438739404927786,0.47117405477028407,0.5737572154310335,0.61533254794489,0.6131682042929187,0.4719497887921684,0.6456270908044884,0.5295661423169121,0.8585162136111607,0.4711740547702836,0.573757215431035,0.6153325479448901,0.6131682042929194,0.377621353376788,0.5095839656445221,0.44270440830154306,0.6296402942932693,0.47743430745186005,0.5350151315030612,0.6668214973869421,0.42791063809054397,0.43999424596313036,0.7081496468286173,0.699674210399969,0.5214827431140576,0.514695026257424,0.5330414326451524,0.6399844232364055,0.5830018021290054,0.3477493107055211,0.8283330027050205,0.651207935729693,0.5312350778032083,0.583878855970083,0.7028730506374067,0.5176010964005459,0.3592630880865715,0.39393074304339903,0.3684646434505958,2
0.7001359289874702,0.019466414534872037,0.17153099379648407,0.14459335590817385,0.019392963597436353,0.2030477234378713,0.03243530094344357,0.14167916041979012,0.1153846153846154,0.20878275318284367,0.10139275766016714,0.152446206011244,0.42718498399502636,0.08893018316963103,0.7867464602830725,0.037443926196541834,0.002149212107070239,0.00044936779782336764,0.2171401097342382,0.8842379369387713,0.11466601666037532,0.13844589940552687,0.019392963598959333,0.18433136154468338,0.07290995559510284,0.009532892691831593,0.49441868827320656,0.27935344938158413,0.42497839300462703,0.29849381477125925,0.2859938698475246,0.5220011808315961,0.15937500009960934,0.46718975517632577,0.5548070361431441,0.36229488167361446,0.5986504522301788,0.48061184572979576,0.5193881542702043,0.019059128947860476,0.02461094487947977,0.6269625235967067,0.37303747640329343,0.18299841186685167,0.15905472148087973,0.6188495858688717,0.3811504141311282,0.15168979366469187,0.13319295712345658,0.7155952183016325,0.24357246161022722,0.3022027500366038,0.3140375654543714,0.3155541695246366,0.4910665944775311,0.5901840490797546,0.643908969210174,0.41327524486553374,0.3276875820038994,0.0782395494229105,0.06662592524956899,0.004654058205594188,0.3170746988706671,0.4142011834319526,0.44539853906959725,0.4562086111169865,0.3225404729647467,0.365555394349537,0.28408371776877994,0.40382933553043093,0.4364959899891146,0.21130378034251124,0.22776794718964058,0.7053405606985486,0.22551706199291785,0.22713977255304996,0.22863016096689678,0.04855071250267062,0.21512875926996727,0.31515951437145684,0.7106301029417312,0.7109592897828669,0.8179204423430405,0.22713977255305073,0.2286301609668972,0.048550712502670346,0.2151287592699671,0.5425074399929081,0.35515217208113115,0.36137160657059003,0.6166268543878282,0.3743379531434892,0.9210083297570814,0.28990130849745255,0.3635879285145632,0.5513801866116791,0.22371933631052143,0.18098787608880962,0.21998881243064144,0.09952244402685978,0.2188001448843207,0.3965855437056147,0.20457822041703883,0.5736692079142335,0.7883660369259045,0.5333395171830307,0.20347637377125533,0.46978879036647864,0.23528206072108623,0.5386082649303878,0.17064791938742477,0.2941091299654342,0.13624014296484394,2
0.4366758827580117,0.02280834160441575,0.38446779658583397,0.03619996187798484,0.022807931065078394,0.04268625691348805,0.025766650946264368,0.3553223388305847,0.03846153846153848,0.05511996174369124,0.031197771587743735,0.2312083239210286,0.448334071754248,0.05229625696840987,0.7846686186180272,0.1927132071904486,0.04212056758758083,0.002415249821379976,0.07977681933786626,0.706495118421875,0.2931644119141672,0.5198921566088138,0.022807931081699366,0.04289659635255934,0.2874504054165513,0.003530652100770704,0.16011771300378444,0.16146461688098057,0.045835374632393414,0.675601967337455,0.6598207982987218,0.9134221843134129,0.09807692281129807,0.6908334200415793,0.7066133959539631,0.6779709162792762,0.43798751941319614,0.5224464814886094,0.4775535185113907,0.023339285214774134,0.026775347348129433,0.5308055407063331,0.46919445929366677,0.040232276299011716,0.03930038611010586,0.5345430417083804,0.4654569582916194,0.036626424191624145,0.03561119646214624,0.8220703043874187,0.4344788115643229,0.37297593106369953,0.2812398851137913,0.32348828680468394,0.5148890092041148,0.6993865030674847,0.7630522088353414,0.5356045611939366,0.407674338757342,0.24721959731885812,0.247158369510235,0.035354378566469113,0.2528546590855693,0.3767258382642998,0.2741929380695608,0.6753298927746971,0.7597525299203536,0.3489904019370431,0.6045929207197626,0.9036626425786998,0.27776153250499,0.7378720407031849,0.461937395765112,0.2247720138534837,0.30713589521859397,0.5379207587526507,0.4342397185353208,0.464107979982862,0.46963364953764886,0.5552144970526617,0.38949723703066225,0.4960073668969738,0.3663768194023365,0.5379207587526488,0.43423971853532095,0.464107979982862,0.4696336495376487,0.2719885101560041,0.2137398693162085,0.22354416603276295,0.3579829831170343,0.12641576778288324,0.31670081590609966,0.18037674181403812,0.5031105511730717,0.7354102469328907,0.647243514058397,0.37823997176885826,0.43836152689404906,0.3401454098834695,0.3700875719455252,0.39469015123829787,0.563910439437913,0.5749018487225702,0.8640403028147259,0.6342527190855993,0.3849981235264925,0.6490983608335467,0.44432476002273796,0.5866987699594162,0.718295392404719,0.6116769713054078,0.8492472250293914,0
0.3931345556846053,0.024117817418299832,0.4276767518289363,0.025975928024055628,0.02411504371857159,0.028623839688465318,0.02533886170913053,0.3920539730134932,0.024725274725274735,0.03336241179254476,0.025626740947075212,0.16552837525466194,0.3851288055607158,0.027873639500929116,0.7466063348010892,0.3188410544186142,0.056485766368030536,0.0023989151140799627,0.09944603806005951,0.7543253584008192,0.24572540077937363,0.563526325135485,0.024115043713510323,0.028324256981820617,0.3512619679380828,0.0029508537179788403,0.12437301235056258,0.14376297769899948,0.02326189995941716,0.5877922082944079,0.5669314138939378,0.7932733799783556,0.03320312502075195,0.6564082241840952,0.6814901935791688,0.6328144830716225,0.150215035521839,0.387939021808534,0.612060978191466,0.019811358261438382,0.033875634236020656,0.6785304640987997,0.3214695359012004,0.035699409876665686,0.017130498475413522,0.6358182223035359,0.36418177769646404,0.03216187937789542,0.019974688954950394,0.7677629513652657,0.45992210075338025,0.3593456226491847,0.2805830880998322,0.28511399946486,0.14239306984298866,0.1950920245398773,0.17001338688085676,0.5012863004126311,0.4376203234785594,0.21658601386772516,0.09039665473269137,0.16793738230405897,0.06692981219554218,0.07928994082840236,0.4885063025130541,0.38113911228115827,0.36467603660200437,0.4506619645821186,0.43373065689277535,0.0893455691309833,0.5074755963706851,0.5470936699326396,0.5584258282034579,0.4949165116422246,0.5731920918373563,0.5159560550068296,0.6230100421226239,0.6785054920099667,0.7193392333217379,0.8047256222246114,0.16490821316751092,0.38678840780436174,0.8455145770355834,0.51595605500683,0.6230100421226252,0.6785054920099667,0.7193392333217391,0.9210608843554486,0.5036406797306983,0.5441086744331215,0.6907297235386745,0.7327205181202068,0.20793856387985826,0.6902383318114325,0.405802311986739,0.18272974001260195,0.2730411678387386,0.8046781836906545,0.6428995455093317,0.6113049816654004,0.6081888065184806,0.49554280467633627,0.5332794527592223,0.5612266948451778,0.7094708980167279,0.9518642784767728,0.6508596680475671,0.7632726067323973,0.8084947972498906,0.4194726478094964,0.4831640147561819,0.5180909148866318,0.5309095559211574,1
0.46875518874822775,0.018401610108386306,0.3545963393178305,0.0616048795302635,0.01844660035975192,0.07333602607350698,0.022141968027105323,0.31784107946026985,0.05769230769230771,0.0858636750238484,0.0467966573816156,0.11296730616460846,0.2791203948462101,0.06318024953543935,0.5429864252555844,0.05864552111846121,0.004982244905881584,0.000475503329503389,0.18095683558708026,0.8595639995389751,0.13994908855672125,0.2271354967695569,0.018446600361462444,0.07276147564392378,0.18703410986453523,0.004384057628418905,0.250536401870484,0.18443107689310723,0.11021893887277509,0.5581818183187818,0.5733446707866728,0.7932733799783556,0.25500000015937496,0.8828846194087632,0.861708072400494,0.9055978049578588,0.2619421080504907,0.6333106323973736,0.3666893676026265,0.022685845908343227,0.01737220128820008,0.7368864720718834,0.2631135279281167,0.08442392954548275,0.050248688382470375,0.7292163929850037,0.2707836070149961,0.07155614743054026,0.04284384088264335,0.3439400334579617,0.20063209248828118,0.3811750189965538,0.23617884646716275,0.3127006613659646,0.41093665403356794,0.49938650306748467,0.6358768406961178,0.3008888940939487,0.23892410883986706,0.20138983843560143,0.2177994030241378,0.030583117565099897,0.42201964193411967,0.6370808678500987,0.6924022587304357,0.18666385872218333,0.14799160912742487,0.35830608364017646,0.15766843586087045,0.11523949699578423,0.6621201387871483,0.5389179777107744,0.5754128542692495,0.3830531017531592,0.42161425870395786,0.4706224984117606,0.4481659951345765,0.4146651848014367,0.43997116673923636,0.2052651306465565,0.3511831311525142,0.7311300068906097,0.2889861059289892,0.47062249841175713,0.44816599513457656,0.4146651848014367,0.4399711667392364,0.22748823240526805,0.25278528304481984,0.0,0.2729137074245678,0.015955388166771667,0.6853061001849458,0.472059273625358,0.3684660315406739,0.6773763113630016,0.6964281764721447,0.3991865132768082,0.28924790151575985,0.3887421255393725,0.32478538762839226,0.17455348834356632,0.597089185484931,0.8127947635870488,0.8308679436331936,0.5552279475267828,0.2836767527086543,0.5641650805001176,0.36996729380410476,0.5582269134583805,0.3883676420321856,0.974614358501632,0.6975772510907341,3
0.37323150766125957,0.01706547479244446,0.4483474372951587,0.060739086221918995,0.017121005882303104,0.06330090384426257,0.017092530591848183,0.4220389805097452,0.05082417582417584,0.06339989004376007,0.05682451253481894,0.1853251547784548,0.48578568578462844,0.03132466153437748,0.5606096690012338,0.03024368453086173,0.012642525225398426,0.0005424756294334438,0.04198750534692084,0.549335154377071,0.45086062034192165,0.34710145468137754,0.01712100589721175,0.07539907636903022,0.1749096506586545,0.004319607128798942,0.26621177343159463,0.1828060893526091,0.1203158922110335,0.6327161874383979,0.6519632161268615,0.80870751484833,0.0,0.8826968926870915,0.8535825404678941,0.9179879997879383,0.026728106180242683,0.5203508915692263,0.4796491084307737,0.01826679692346198,0.02047515235669082,0.8338074426526616,0.16619255734733862,0.09466440695610245,0.04324323030484563,0.8110281275752984,0.18897187242470143,0.07905926084274367,0.03766438095372394,0.49514192112520744,0.46072779866568525,0.3079344751817473,0.26534992339322583,0.2713854136540692,0.2788305360043314,0.34969325153374237,0.47657295850066933,0.2047852717626805,0.11822050005518019,0.08441676764691114,0.036360414634802565,0.02611850276799286,0.30611030183418697,0.4990138067061144,0.5371283457984485,0.35544006246969023,0.11850676167291774,0.13840105328744545,0.05921880924326833,0.306425233821387,0.5091645470045852,0.14445868193148353,0.09404886513575283,0.12618586602727894,0.0522095394942419,0.09197998194948792,0.18242985230532038,0.11948353935186656,0.20551783638055504,0.49553720659380035,0.3777755735360282,0.5692345254408553,0.3396755645573376,0.09197998194948809,0.18242985230532072,0.11948353935186667,0.20551783638055526,0.39358926913329645,0.684831274085303,0.5397376950588728,0.30805881510650845,0.3387451641560755,0.3598125450615203,0.4445558907370394,0.4228363193283734,0.40968053515591984,0.31214247928356414,0.6014833790507897,0.8781505918753886,0.8820199425868129,0.8807009745534576,0.23664474315076833,0.2799987265889216,0.8140322831098206,0.07925607146660174,0.12055687277972765,0.8661324326347339,0.029916668775402278,0.2850377656049936,0.4515024402207703,0.42380100942774857,0.4730380046295261,0.39304420090176706,3
0.6958708666530082,0.7250672603309044,0.20985639602404993,0.7545064819464519,0.7240358802317964,0.9573960825941922,0.9235658919143669,0.41829085457271364,0.30906593406593413,0.38917124611700343,0.7662952646239555,0.6855643164850985,0.7149306431229486,0.37138306344571276,0.22423328299234935,0.9902997232951819,1.0,0.5822245061772964,0.013192498351101608,0.25826330560992905,0.7073630157944751,1.0,0.7240358801499975,0.7663243914614288,0.6536125300592641,0.5790627434195664,0.03916164442840739,0.9119557220304491,0.280430240375957,0.6530594420058994,0.6388520140826092,0.7421555247546481,0.2693661965433538,0.643747526687438,0.7303240155222428,0.5184842449117144,0.13618800582691226,0.3664372962402639,0.6335627037597362,0.5764099182173595,0.9196619136705232,0.8078356388603354,0.19216436113966462,0.8259053854696238,0.5851264034361336,0.6665200773973803,0.33347992260261977,0.8067649710285772,0.6975785595847961,0.5609543241675696,0.0712651724732778,0.01913991370501926,0.017613170653580687,0.01932646153998982,0.5062263129399025,0.40490797546012275,0.4792503346720215,0.7418225256772107,0.6102990766514206,0.0069104417931803155,0.005818855645201154,7.28175245004323e-05,0.20116535877073446,0.1940828402366864,0.8900982535598361,0.07230317881778436,0.06617910692654894,0.39351439272634303,0.08103273831876567,0.22559360714889296,0.8896567505686632,0.6444146615216948,0.5847144362378514,0.3909622741696344,0.6898726134078548,0.6352356207573364,0.5894072325381854,0.3892184029632797,0.6764973738192721,0.6482460227716205,0.36464636098362385,0.34484033845152035,0.8631740908861929,0.6352356207573369,0.5894072325381865,0.38921840296327614,0.6764973738192741,0.07376559127654658,0.19849653927347996,0.22202892332336877,0.5781789407173791,0.16902745878298886,0.40961378038892976,0.7652060472260249,0.6611777742179028,0.48051087809839366,0.8177444706071546,0.7548161655339649,0.37055206428918464,0.2263823753281237,0.2898028010672201,0.7720698335055474,0.39986465261707854,0.23501925659896428,0.7262049011185019,0.40522837865077144,0.4248226934804281,0.43576993355460003,0.35719189886444014,0.5671379318062355,0.516894386385245,0.4654026074857386,0.4589968536122651,1
0.36559297808868263,0.0009376894980962433,0.4563050634804592,0.0,0.0010033314223551679,0.0,0.0,0.4152923538230885,0.0,0.0,0.0,0.0,0.09295662264790516,0.002123705866737456,0.5666550643312224,0.0460708422782537,0.017322598461733337,0.0011411426519789337,0.045962260486782994,0.5720870898566396,0.4272203938746518,0.39098777454814726,0.001003331437986487,0.0,0.2601960552527541,0.0,0.17943179616504487,0.0,0.01742732100077543,0.7334754633902693,0.731494709057383,0.8750789023226446,0.19921875012451168,0.6204265705292684,0.6548736150172898,0.5861999392139268,0.6612275300209705,0.5009946909947235,0.4990053090052766,0.0033339859878679552,0.0023591931840884206,0.5007641364884466,0.49923586351155336,0.0,0.0,0.504179722132412,0.49582027786758803,0.0,0.0,0.5999647294085237,0.6011118750005463,0.1335744170529684,0.10150367674210294,0.12479403840434129,0.6437466161342718,0.6993865030674847,0.7630522088353414,0.4116005168624419,0.33431533641524935,0.12342633097945067,0.11191446849921256,0.012786511059439435,0.492505051454349,0.5838264299802761,0.6241513658001884,0.3114496259630294,0.32586964604767377,0.44892036956941817,0.3260686262454573,0.28836189626051595,0.6125620791462821,0.28266319249749094,0.3263744597870065,0.923922622453186,0.36555862860254135,0.30137770407543507,0.30406945064729685,0.7219175527835469,0.39036579601522775,0.730976480526781,0.9585199240115403,0.25478031331798506,0.8815094516250609,0.30137770407543407,0.30406945064729807,0.7219175527835473,0.39036579601522786,0.1840812091465735,0.22566203369946378,0.1861974808870044,0.28690186313454735,0.11204372203285703,0.5900030603320034,0.44037306020924527,0.5115600698310842,0.15588551297813544,0.3185214897631429,0.2744074370083296,0.1772507843576428,0.296436654869583,0.25482163156716575,0.22546512119424064,0.6792442969263643,0.8506124914907506,0.812859749191233,0.5877311584621059,0.15353791134642275,0.5345654927917168,0.3520066403771145,0.5408745406832773,0.18222016709722444,0.6667806335203597,0.28657080352956105,0
0.4186888088711145,0.0013664914782292002,0.4020053897114829,0.02123714340133047,0.0014403030554347614,0.02527650052913056,0.0017552969767825471,0.3703148425787107,0.021978021978021983,0.03184038094963161,0.03008356545961003,0.002731984311207013,0.04508196715457469,0.009556676400318556,0.43966817487205423,0.036998204505108705,0.00836610568274056,0.00047877027096339175,0.07550427286870408,0.694096355964262,0.30572588183506877,0.29177402239762595,0.0014403030602844064,0.02705542497793366,0.17103675098598436,0.0008010485991187676,0.2715338599175261,0.053138903417739636,0.06883186659639043,0.6367824323573524,0.6525882498572823,0.7699863569503413,0.20238095200148806,0.8173572070546808,0.7950288377969927,0.8513986218231118,0.4617917669448146,0.56346680110778,0.43653319889222,0.004942006412029524,0.0013153409338680366,0.6659369670321449,0.3340630329678551,0.033739226614086085,0.016778687098509618,0.6583921589352142,0.34160784106478564,0.0273005933898643,0.01337899361204515,0.4047245900812692,0.263681125373369,0.2246149592131738,0.14030479780332933,0.1852637121476664,0.7119653492149431,0.6723926380368098,0.7336010709504686,0.2748818126100382,0.2340835796004954,0.19507717799875574,0.21927778220240346,0.03379374775296816,0.7227573892204314,0.7396449704142012,0.4359208607906791,0.46871441137908954,0.3690022508633359,0.1805991061749589,0.27325204679348153,0.18231294570369444,0.4516683989655449,0.262126045235945,0.2391336111240681,0.5405744224175617,0.17279813891466933,0.303972674805411,0.28334042968553175,0.2603788921394641,0.19877760506792347,0.21992175301886713,0.5261631803284228,0.729150511354405,0.4752120441994323,0.3039726748054099,0.2833404296855314,0.26037889213946447,0.19877760506792336,0.3232486039979921,0.556882906945625,0.4425316502854955,0.5986488648811786,0.4032939320890865,0.5116487368560589,0.4049849987522101,0.6093906639260216,0.48716403647816203,0.5188315274476806,0.3075164817691685,0.2652790043451446,0.3742657416260309,0.29090322931683804,0.20388095693254865,0.8728659596466399,0.7413810390602082,0.775033830781113,0.39877330952819035,0.24531564166368572,0.3986020500273308,0.3280498592407509,0.5079485451854225,0.15665717125401168,0.5963082011984512,0.17515553925807234,0
0.5911922225465405,0.7307685218621386,0.28635372058517106,0.7213391525879244,0.7309370247723428,0.8548901853950526,0.8707280884995185,0.4726386806596702,0.035714285714285726,0.03954127624967957,0.6598885793871867,0.5622765196521877,0.6159949909468202,0.28670029200955666,0.0,0.6943589373509159,0.8681229196299478,0.4910413114548442,0.009640071146852247,0.20147124742076553,0.7627462435840753,0.9783728175152662,0.7309370247274037,0.7099892617679363,0.713856185804842,0.5450298366856793,0.02990586031753091,0.9022037228083777,0.2359170036684106,0.600625000226846,0.5875978982473119,0.6908882026550918,0.05059523853162201,0.6611942441709382,0.7689269360919522,0.5022799901361088,0.10244686368493139,0.3206975910998362,0.6793024089001639,0.5570922994918122,0.9535781610758389,0.8575603781758012,0.14243962182419867,0.7860441438025362,0.5153288688450464,0.6624193966967545,0.3375806033032455,0.7709095497147646,0.6698168614587457,0.2647803166304972,0.03139554457057572,0.03362244761258461,0.009023398159259316,0.01961437910094388,0.41959935029778017,0.45276073619631907,0.49397590361445787,0.3895362682063233,0.3322031612120023,0.018903579528362625,0.013084108916586151,0.0006697101601155701,0.28731419262879254,0.33530571992110453,0.41166726829696687,0.5004491831517274,0.5801688277207037,0.7520204934722876,0.6587596285524289,0.2223456692044889,0.4115728346738417,0.2383528161707707,0.21747660643853037,0.15041613605064752,0.08278785278168316,0.20085125765725925,0.19859374105453098,0.23272214962343382,0.13258845574418038,0.11435247277301358,0.3507839965444953,0.9424002533591365,0.44735914010411615,0.20085125765725823,0.19859374105453098,0.23272214962343415,0.1325884557441806,0.35555081225669166,0.45204400773408826,0.2735931883231328,0.22497305647300958,0.2027955990793633,0.8033004517473035,0.2594808535816095,0.1994543428654215,0.4130886512226729,0.2414377980695636,0.24231867776550192,0.29406759782457537,0.43161979688014535,0.3412625659753076,0.405750052463916,0.6315205469279673,0.5974460392275859,0.821577542804091,0.5106939628930579,0.2449114323104365,0.3821874305900451,0.3593157118519393,0.5168631108547481,0.2039696602498526,0.5379510579464184,0.23334056164177328,3
0.6629050144401967,0.7230976107995426,0.23391136214941854,0.7694719402027335,0.7221150750575731,0.954848050306386,0.9015428986263474,0.4490254872563718,0.1964285714285715,0.23945749912530317,0.7442896935933148,0.6343908665189613,0.731747773361557,0.46721529068224055,0.19232965767281468,0.43145115409974316,0.5613716871447773,0.49589427132014174,0.009105730586368673,0.18557048366080184,0.7572977636249822,0.9117404192092413,0.7221150749937212,0.7917978402200359,0.6300867646773056,0.5951703130828905,0.043200544262910645,0.9163738195055426,0.30123704610434066,0.7100930564958267,0.6915172301688256,0.8500709959658916,0.2328767122705479,0.6643235958685101,0.7292911104042554,0.5739837043315132,0.208989315707508,0.4090008383790974,0.5909991616209026,0.5968159646947032,0.8934344219029081,0.7226653846205698,0.27733461537943027,0.8139701474043395,0.6512444434837779,0.6328284966289689,0.36717150337103094,0.8059923573490264,0.7294900566885765,0.5517984947336572,0.02517720758803521,0.02301227087403862,0.0005180372169095032,0.011205082715474685,0.23876556578234978,0.40613496932515336,0.4431057563587684,0.4160898809732941,0.28757004819070275,0.007883844094666425,0.0047127430203317364,0.00020881920196291843,0.09512397600363391,0.1796844181459566,0.6338956217413372,0.22163011554025158,0.2630997631548462,0.519298971106216,0.27791662050773147,0.28012875123865444,0.6425863983822888,0.585202443206565,0.5700262757264413,0.4045540231524893,0.6114944257905159,0.5854568895100181,0.6245018419863225,0.3184714644406523,0.6589779641773844,0.6433205567237014,0.22822817718853305,0.5637122897846516,0.8699926710035044,0.5854568895100194,0.6245018419863222,0.31847146444065266,0.6589779641773844,0.38561935717835344,0.435503278067844,0.5262609590533689,0.8603477474347393,0.6227868440155202,0.3463362880062141,0.5313867028233408,0.4295970632072581,0.34222216594292604,0.376499459781871,0.7784812718050272,0.44253527536169884,0.19055297351687223,0.33257792133897474,0.5528566217123159,0.5854580680762774,0.4371320384069988,0.8099944389894606,0.43711113711916394,0.4968621158966091,0.4914367183358372,0.3749838472837154,0.7011928113507967,0.5274910855129163,0.6791641017310495,0.8037783313532255,1
0.8247679198731122,0.7302658485978859,0.13202625824833591,0.7227714585175921,0.7291906499266289,0.9888189476473751,0.9999999999999999,0.29610194902548737,0.6208791208791209,0.8741214360984892,0.7710306406685237,0.7588391391083934,0.8488679245950123,0.33581099017786037,0.455074337459453,0.9191703447821356,0.8456090142795109,1.0000000000000002,0.015015327144916863,0.27099546847153166,0.660848783641044,0.9743550307664872,0.7291906499275967,0.7094435951715496,0.7125802668826342,0.5433933017186752,0.03008736740136063,0.9017196165011305,0.2361695377933483,0.6118113226107894,0.590321822613087,0.8033438789412459,0.30797101419248185,0.6379540639450774,0.7183679957297004,0.5232341663019291,0.23851321858945873,0.3834889848304148,0.6165110151695852,0.5894924751629596,0.9166446530610804,0.7115995962365949,0.28840040376340526,0.7255878070967988,0.5877947565291108,0.6026233485768375,0.3973766514231624,0.7411598719606063,0.6980705942829624,0.7056488802702021,0.1635946972072272,0.017337601769384856,0.016719882529780017,0.01763119103013991,0.3459664320519762,0.35460122699386504,0.38688085676037487,0.6947193366671741,0.41379014359112704,0.00680206281620442,0.006309322275165774,5.9274168494313244e-05,0.14477703115455104,0.1650887573964497,0.7674134837778276,0.19312030166441255,0.13731635407442008,0.23738840411779852,0.0755421463426173,0.17543940261204863,0.7713450491517206,0.4050125607021818,0.4247946613730705,0.5336663882403909,0.410425294305753,0.3839492100491054,0.47180623924755716,0.571469815034371,0.5654532149089214,0.4686208669586075,0.667951066294815,0.6048384812970802,0.8636384454124723,0.3839492100491057,0.471806239247557,0.5714698150343713,0.5654532149089178,0.7542836928374663,0.2546832670212227,0.20450234872026504,0.4215303993430067,0.19013254646822292,0.2882092891895332,0.45317111927009285,0.48062259468752727,0.4102216986218602,0.46273059225620566,0.417677939543336,0.3549949163109767,0.44639658829781065,0.40611967162001933,0.4472064361202848,0.459648801623524,0.41975427928265224,0.7882259166721073,0.8050000023100361,0.33764009863581795,0.6076528475487906,0.49128206406346736,0.3578538987794132,0.3152561237219963,0.4201345894121039,0.21753282087287532,2
0.39100907777154603,0.06524611836940815,0.4300849248644042,0.09325176718291235,0.06519256097757734,0.09911388345209729,0.06893560330630613,0.4077961019490256,0.0480769230769231,0.061568672773215594,0.054874651810584964,0.1454748487002449,0.3016552601549719,0.12131669763737724,0.5216289592476944,0.3361606706997957,0.048376675248206887,0.010502400058543592,0.12302531731603666,0.7931356261966581,0.2034042370741944,0.5404366831969419,0.06519256098880771,0.10773316553616245,0.346892394295579,0.013694764829105595,0.1264824790926853,0.3289319226955618,0.07634991747636563,0.4437952335106846,0.3994490365858975,0.6493860836384888,0.0,0.6233152863972768,0.6579607724891525,0.588438007070244,0.3267720102840683,0.5085224249275937,0.4914775750724064,0.06061197069590149,0.07633330115865991,0.7758013442519179,0.22419865574808207,0.12396897937597609,0.07472827176367461,0.7390929384994501,0.2609070615005498,0.111719774914732,0.07371769657660648,0.800037243993398,0.2685984768035489,0.06686313015150644,0.050175519038785074,0.05380309761098798,0.2853275582024905,0.4638036809815951,0.5060240963855421,0.47812118160063394,0.3691585633529938,0.0516318156033727,0.026766106330280696,0.00560035535514797,0.12081199191767304,0.21696252465483232,0.6696354873084945,0.22499702468367141,0.2749239926034462,0.9877070143937211,0.46576289112533803,0.18072674345177617,0.6654345970954488,0.4961627660709265,0.44074521958886426,0.33852438210410163,0.42067261918858523,0.4531862117812749,0.39380005185383327,0.45501518151032655,0.5096855999076612,0.6583149529396595,0.5956112795401028,0.4081444719353355,0.824746660366512,0.4531862117812753,0.3938000518538349,0.4550151815103269,0.5096855999076636,0.5469230291965295,0.18672453964041077,0.15849075589434783,0.470093966692439,0.13948033602366125,0.42393304051863917,0.5814257957540144,0.4892841855904379,0.07296033357537324,0.34697368747571555,0.45109147014113554,0.2539890758791017,0.23474502360031993,0.2749355156142302,0.45328281409561666,0.7135707583035629,0.6221114309727397,0.78621738131899,0.341289577578475,0.26022060055523644,0.43330562885663804,0.31227191375666896,0.39984832315477525,0.29818798939408137,0.5444509663752849,0.31164094787204427,2
0.6594750950278174,0.6187331005009549,0.22912497765079542,0.6435860018255732,0.6185861983030231,0.8040870494021931,0.7754194562592853,0.36844077961019484,0.19505494505494514,0.25897259032758796,0.5974930362116992,0.5694316150035866,0.6717213115019175,0.2774090788425803,0.14379084962115163,0.6397107168769065,0.828659312261843,0.6679259364769369,0.00912326144890231,0.18744298960815806,0.7604383746198429,0.9712591187656697,0.6185861982243525,0.6486890560858224,0.6537917558338258,0.4277155823078944,0.03913186450910977,0.8632031351675766,0.23503392823984012,0.5926988643689765,0.5852980802841562,0.7585266026805313,0.04521276652825797,0.7233229994036199,0.809769984991006,0.5932632047854844,0.0732291315096838,0.33195883491475286,0.6680411650852471,0.47662323249109967,0.8026553405441704,0.8587697110875587,0.14123028891244138,0.719872744960854,0.4689058097467894,0.6851059173562789,0.31489408264372093,0.6934896883795247,0.5828150159800286,0.38455634498446606,0.0621519302371247,0.03849536624297936,0.027146283920205086,0.031585807050630396,0.30157011369788844,0.32147239263803684,0.35073627844712185,0.31057811298363136,0.23731775208151953,0.025976974591414147,0.01640608392290353,0.0015451245503126513,0.19803267390316873,0.22682445759368836,0.2479853879206831,0.731768855376727,0.7087157168490767,0.34281110285011607,0.6476326766715619,0.6460882707883697,0.25300524744264496,0.19589773929986437,0.3101801768273944,0.6924798046495007,0.17999896180530825,0.24928138829697744,0.4281764128508658,0.8855911090141135,0.4926252949523721,0.271277930049724,0.3040382973533997,0.65511779797013,0.5580168667008916,0.24928138829697669,0.42817641285086666,0.885591109014114,0.4926252949523739,0.7261493314389471,0.255125208417466,0.18717153866689296,0.38261388124129636,0.14159084479218464,0.84123719287017,0.17135803562278462,0.24185589383747835,0.6618405593092493,0.3198962277775377,0.23296592350023998,0.7114384843675705,0.9714958158589128,0.9085907622286805,0.23968585833335188,0.4288830796855988,0.6852810367260903,0.7781313048310357,0.8662240612832687,0.6980722069480116,0.9649724093548115,0.9777103899525492,0.42935271724305035,0.13726179097289704,0.45813134121035776,0.1623919225875996,2
0.3358045412189028,0.016167924166198777,0.48916120040167266,0.0231679651996788,0.01617945719985622,0.02189902702499711,0.014779564232607213,0.4497751124437782,0.031593406593406606,0.03663284769162585,0.028969359331476326,0.15626645784122714,0.2704918032484319,0.013273161667109103,0.5574660633181466,0.06020458681699401,0.017804095881247275,0.0006241491659335106,0.05842692873161244,0.6332786678215556,0.3670983334894591,0.3948642347971536,0.01617945719794807,0.026996946010045028,0.2919832566641061,0.002155314553799994,0.1571775329270554,0.11581027198573968,0.032731665540968846,0.6938953487927492,0.6617378612637902,0.8153945569218173,0.1180555565737847,0.7068525078512837,0.7183002515958978,0.69903011563096,0.12250953891895278,0.4414959377484927,0.5585040622515073,0.015021419411480535,0.022119225139637606,0.7058819005683447,0.29411809943165534,0.035888531537223836,0.01435992416151198,0.6750458225262917,0.3249541774737081,0.031123834401913637,0.015144002582928466,0.7456882707540244,0.4120544391048221,0.2955535928061983,0.0986436075437311,0.2125858412363612,0.6231727125067678,0.7815950920245399,0.8969210174029452,0.4371703733199042,0.32002673173842133,0.21468220814051625,0.23174261514328592,0.04887462995901721,0.30454395940040413,0.4437869822485207,0.24990016604467685,0.6741764315477712,0.6522695174167203,0.3963100062887661,0.6404414588620932,0.8769939986033293,0.258891050119343,0.38600470676573584,0.3263274534816245,0.4943927337642665,0.32623105743059044,0.3106397783575383,0.2737510601834785,0.3868164422796874,0.28755454867649105,0.5507554347623058,0.46615238778743434,0.39813802267679693,0.8010999632864281,0.31063977835753875,0.2737510601834783,0.3868164422796878,0.2875545486764911,0.29956699351891447,0.44795897097829906,0.3740457544702521,0.4046083195218767,0.29776849366291636,0.37857742754393053,0.23589132607908622,0.33252463266657295,0.7706095904122607,0.4545009868573956,0.49783481351744735,0.517776144569408,0.35320458594246035,0.45665046893971006,0.4773246862377011,0.5504506722759644,0.46478323796528076,0.6427201605818819,0.66336852709082,0.42486681614970434,0.5827725358031611,0.5409940498140516,0.5638391023348411,0.6569044676069611,0.6248469669467078,0.6726954318972914,0
0.7719234687335397,0.7092263124796856,0.16012726422407997,0.7325264379155922,0.7083563964690428,0.9747331769073385,0.9457993356346983,0.33133433283358327,0.5741758241758244,0.7824431975970578,0.8662952646239555,0.7741891309349986,0.792943843793002,0.3400584019113353,0.2650602409086845,0.8749674374581208,0.661949287590487,0.6786763790658312,0.01943035641005414,0.33118122827258256,0.6140440138409453,0.9369227036640237,0.7083563964558715,0.7391030446652304,0.6624637403699482,0.5485211545654018,0.03770804031932269,0.9032316741318107,0.2662262717769589,0.6913539656922664,0.6775762422340729,0.7833863877821723,0.43220339114512707,0.6947123779690081,0.7438311205603403,0.6282118171476094,0.4248307701418894,0.43560701118215317,0.5643929888178467,0.5985663878788685,0.8616000222304117,0.6186192710308474,0.38138072896915265,0.713387614104471,0.6568217264399913,0.5729703089476854,0.42702969105231464,0.7365643476028693,0.7220275356609804,0.7274331475276765,0.15674817023901455,0.0,5.541866961167319e-05,0.0,0.4856524093123985,0.34969325153374237,0.4243641231593039,0.6740799731418912,0.5590872582800946,0.0013726460361329282,0.000833023833000503,3.517754806784169e-06,0.22466049527747756,0.1992110453648915,0.7171506271685231,0.13438425569018278,0.13660809789271075,0.530478037107392,0.17218628298473304,0.2452323016964525,0.7103179940832965,0.7529152612151737,0.7036531311683832,0.44188325685796936,0.7258767278610492,0.7839121964787341,0.7611350157696136,0.22357099844507408,0.7471456160613719,0.5042746583730263,0.6729649821116042,0.5244685535637335,0.7792522681602382,0.7839121964787328,0.7611350157696146,0.22357099844507447,0.747145616061374,0.40821745615674526,0.28993898629336645,0.23067511118673995,0.3980226843624398,0.17113796755151225,0.3016539282841022,0.723536747269611,0.7885156051165918,0.31758678838574916,0.7380894323783542,0.6967274678345344,0.5604395261893387,0.47728270580892385,0.5560524428962935,0.49056308057328774,0.8339862455127742,0.5186172719214669,0.7783720573990094,0.7334840359612638,0.5707254831087313,0.5776718169326693,0.5516386853772273,0.2953530873348287,0.5685947162936966,0.06366085498627105,0.37671785949431713,1
0.7354119213118229,0.7263206018402223,0.18643822537830912,0.7712676056297338,0.727255168399091,1.0,0.9450512607472192,0.3838080959520239,0.4423076923076924,0.5749043359951074,0.7626740947075209,0.7174150356921488,0.7279684388721702,0.3490841518449695,0.2931121165813695,0.6462054879938022,0.43803301079554824,0.44214606037895876,0.022347333742402622,0.3646245003533044,0.5840298542725525,0.8738534525734233,0.7272551684288967,0.7856220138596973,0.6401302185074114,0.5949605997466205,0.041444151863996775,0.9163170671181184,0.2940332777926936,0.6600339864763155,0.6688273694429979,0.815154428327008,0.19921875012451168,0.7420927489370674,0.7549950362846054,0.7244695532589502,0.4269015101434923,0.497066222776947,0.502933777223053,0.6446042546747501,0.848351391297383,0.6438809943053331,0.3561190056946668,0.770311248784021,0.6860779243119296,0.6148873554252531,0.38511264457474687,0.7948791549058487,0.7369275224565943,0.5097888017191303,0.13413681645743225,0.01924658910110351,0.011971389427650997,0.015027654278755603,0.48456957227937203,0.49938650306748467,0.5448460508701473,0.28579682309172744,0.2284735932116099,0.007104986566348532,0.0035925439961985764,9.146162497638839e-05,0.4940713938881318,0.5463510848126233,0.5669335702433205,0.21137870183222657,0.14809934267637093,0.33287995195253556,0.11990418593751506,0.1885822212708,0.5527426339508799,0.8318933638522872,0.848170803159547,0.35145023807278447,0.7264306373141753,0.7691672047600375,0.8451900567376085,0.3388203899603342,0.8131381815491391,0.5402988894207211,0.3640029605138994,0.3444467944512575,0.22897104822770042,0.7691672047600366,0.8451900567376087,0.33882038996033453,0.8131381815491372,0.3336437295280523,0.8784472380795456,0.8913866036240368,0.6274501058017454,0.8275061945622901,0.2791039523495785,0.5932632681015343,0.33032548257440114,0.3137146605185953,0.3804332346990535,0.786271417336392,0.8257489293415456,0.45752404397797297,0.6243631377920186,0.7092404792313911,0.20055561700770058,0.2173959855046237,0.013233704661298362,0.4255552252069872,0.8336767556082776,0.26296633380381523,0.37781177575754327,0.3659713127886114,0.743347450736404,0.36509012796462514,0.5416976814008261,3
0.5246736768438411,0.6832121676794467,0.3374179424579834,0.692104176013641,0.6849394547494005,0.7853069842733467,0.7804502998230415,0.464767616191904,0.17307692307692313,0.2072179064359596,0.5704735376044568,0.5558449733010655,0.6762295082815716,0.3485532253782851,0.07836718969710221,0.4627781712432751,0.5970265921842688,0.43046249763555117,0.00922003051086116,0.19090361735369835,0.7626954316191156,0.9211484197289893,0.6849394547304877,0.6943513545066285,0.6809036578665735,0.501678807517221,0.034787860376424895,0.8888633494608289,0.2421352532922846,0.585485190520333,0.590321822613087,0.813212968954619,0.2931034474331896,0.6835664329444318,0.7593748486400236,0.5755441311301834,0.11381731108321835,0.3642923366086379,0.6357076633913621,0.544200204382943,0.8713508126888836,0.8138549343366683,0.18614506566333178,0.7519143022782345,0.5259365549798797,0.663059664050718,0.3369403359492818,0.7416240657147153,0.6433841650525334,0.3162764035815773,0.07652418262271715,0.008866492386827823,0.009026382452156131,0.0096378829094637,0.5094748240389821,0.34969325153374237,0.3815261044176707,0.23855309746604672,0.2038295054628392,0.002465167871526063,0.0014788046574235787,2.3393069465114722e-05,0.5426280093354009,0.40039447731755423,0.49181961682380615,0.38117025049487574,0.34948985488293954,0.23528567101848313,0.2544965733174349,0.14114722059438695,0.4786215282949675,0.41781903582527496,0.4865080012659535,0.39487399846073445,0.370543813680676,0.3412877486634959,0.42972812229824364,0.5085791887480995,0.4287610629178852,0.701184038635337,0.639786751593622,0.4940296861890743,0.6052935430235179,0.34128774866349487,0.4297281222982438,0.5085791887480999,0.428761062917883,0.3232486039979921,0.32619062983873426,0.1605695783981317,0.15616829998271575,0.09515965188466982,0.38825762670976316,0.39176219847214366,0.2823146049762838,0.4414002865102141,0.26300133160594785,0.46929137422240114,0.4731806653996018,0.4124353978649595,0.390111548008211,0.6018277377288407,0.2914139651103099,0.6055508917218914,0.7013352906051264,0.32201003527307637,0.43234375970216504,0.30667970607496664,0.3048157947492689,0.8851783314046295,0.4745893896575065,0.8227433517669822,0.6894140367309411,3
0.3515300407194779,0.18307212981296403,0.47294336446697305,0.27328819708412694,0.18289420358508265,0.27755599599902137,0.18726549367246054,0.4347826086956522,0.26510989010989017,0.3284476130489446,0.21922005571030645,0.7530790623943195,0.8436768149703432,0.21396336607379882,0.7466063348010892,0.47774251332903717,0.05375053993302511,0.004163063502481406,0.15858355902820487,0.8392691811456444,0.1601844805922432,0.55612053340304,0.1828942037130301,0.3163067392358718,0.36457446079822176,0.07396261763695466,0.11819995830240773,0.5832823959506501,0.20387179099122252,0.43440259832253647,0.39645625569284915,0.5969511829850764,0.24056603752535374,0.6213857956614515,0.6530325261095109,0.592588205501801,0.8925305288940923,0.6913995284748063,0.30860047152519365,0.18828515904205223,0.1788210862461479,0.36067490901898225,0.6393250909810176,0.24533549477975158,0.3312598296009702,0.4304405416991275,0.5695594583008725,0.2444737902554554,0.2948977700485354,0.8649230204313871,0.4215542099483187,0.22623212875743662,0.20855879149902112,0.2208571717044634,0.2983216025988089,0.3717791411042945,0.4056224899598394,0.4277231897127197,0.3433894127601133,0.10041533937451526,0.06072528196262452,0.011787039528226304,0.11846247826699872,0.16410256410256407,0.8868582123282112,0.036788520908937195,0.1337867547564668,0.5194638321556913,0.1717107650019526,0.2696714212507824,0.8870686515200541,0.6190734487502725,0.6917647757846925,0.6818680816532298,0.876933858161087,0.618045215239485,0.6803018509469076,0.3787456446589983,0.8572110912751496,0.7909573436301609,0.412743944365633,0.29082796803771604,0.764990241324679,0.6180452152394847,0.6803018509469078,0.37874564465899824,0.8572110912751468,0.2869560325111224,0.29679184788608837,0.17799620042856398,0.31902674877570275,0.19359727480776434,0.39502025883387004,0.7536809686911004,0.6799673252534906,0.3995123721656426,0.7483927691046997,0.749201106369462,0.6222705599583715,0.3629270561180723,0.737829761869352,0.6582824391189868,0.6825002107486394,0.25333095285671364,0.8546178156599961,0.6700377979645746,0.6451689234387575,0.4119175722936671,0.5268485313997623,0.7528424507474785,0.461956829350786,0.5663142020322344,0.5793854191485999,1
0.2397217550764228,0.14637270092753144,0.6055941769860463,0.20602236793920686,0.14658108150852298,0.18579667821601764,0.1338916896593321,0.5337331334332834,0.14560439560439564,0.16103052783444044,0.14818941504178273,0.7979737782393658,0.8526679524160415,0.1810459251393682,0.4016227179691426,0.10254212375346401,0.02598329916553568,0.0002647856053332166,0.06830524515311286,0.6715814072756702,0.3294819273982845,0.44906000757419273,0.14658108153551458,0.2328146743939027,0.3893714658238897,0.04746033399135584,0.10762853580824217,0.5140130573377122,0.14076127437168667,0.7675401071358326,0.7594692516598472,0.9292152172461334,0.06439393879024621,0.5427900839270161,0.5941269933558528,0.4917635607969846,0.5381072820845163,0.49930450723817266,0.5006954927618273,0.13213502807571792,0.17179332916280798,0.534263368146584,0.46573663185341596,0.2130369048446369,0.2179098462099556,0.537296473270065,0.46270352672993503,0.2010397462659671,0.20494536449481007,0.39919424229528594,0.5360330412008926,0.14689839764693202,0.16785063806983014,0.1611346036243193,0.19436924742826206,0.06355828220858896,0.06934404283801875,0.34148445704068925,0.24446971833576533,0.001854356796617454,0.0003831591773843167,1.9523539177652137e-05,0.15574142819103115,0.05305719921104536,0.7578711230839633,0.1924381911894779,0.18677426212025325,0.23557129385950765,0.1414268070535672,0.0890206266473057,0.7377404067691244,0.3934359428505332,0.3056044024609631,0.28598492453753566,0.2536999772225855,0.426984393015734,0.30953204944787727,0.15913066886304916,0.23776017079776857,0.3027803195610565,0.387184328702679,0.6244894174891418,0.776591771077987,0.426984393015735,0.3095320494478766,0.159130668863049,0.23776017079776834,0.28280958865774375,0.2386038240317969,0.32145449106941976,0.4507948441321979,0.18462031435229376,0.32395955171174773,0.6200419311637818,0.5001809131469803,0.045564222076374394,0.35505743402889767,0.5400836041790181,0.31061825002738586,0.09347763797808062,0.18875595069317547,0.31291153086061724,0.4692477645968628,0.7845480358105623,0.2699302365299775,0.46191937469329714,0.34779693851691607,0.4769366154832997,0.273024901714194,0.4964618793975056,0.34244939150009285,0.47279464827189527,0.3398054512128649,0
0.4211096898963296,0.08350248591504408,0.4002708142092649,0.16462784244087886,0.08370519432924599,0.17932024204816274,0.0910067702262696,0.38080959520239877,0.13461538461538464,0.17707892677094356,0.10919220055710308,0.5687080660033098,0.7663934425907212,0.10406158747013539,0.5451411333278655,0.14103296571561996,0.015208115007383817,0.0006029140464434932,0.15924720786904684,0.8404883402510982,0.15962455785178714,0.3726975256836207,0.083705194331568,0.19654885357996033,0.26156744036924057,0.026014940110656526,0.17838701401073084,0.4223015925492277,0.17901699279680708,0.4572420836450578,0.47539080079007523,0.5674037881973423,0.15740740734837963,0.8051860082825222,0.7995629734008796,0.8123254435269271,0.30329031321071254,0.6107482330629653,0.38925176693703467,0.08417903000883548,0.0881636723424522,0.6023470326573339,0.397652967342666,0.19094854655273807,0.173681091240039,0.6074333774855002,0.39256662251449986,0.17015407854225287,0.1534469649079681,0.5040950610281527,0.44024082501974615,0.18132033600265982,0.17768519589503096,0.17683016116788308,0.11857065511640498,0.16809815950920245,0.09170013386880857,0.06741463376548341,0.05293926499981606,0.062308374332507376,0.06229875215722849,0.0045072236022042095,0.1352223423084755,0.09250493096646942,0.4191777513263399,0.5200351828066397,0.7320269070650225,0.7522660968113611,0.6949034260888335,0.08840153550747198,0.40099593157235625,0.2730726045365508,0.27953255384343234,0.471448768954194,0.21922118564071497,0.30017907562243057,0.3585958410951706,0.6273726094741876,0.3989808325048978,0.3750686390513296,0.6667261526418504,0.62676371807078,0.7891631727881091,0.3001790756224303,0.35859584109516934,0.6273726094741877,0.3989808325048967,0.2971148199518999,0.26390296483801057,0.32145449106941976,0.4507948441321979,0.18836071454207318,0.5737777284249218,0.2560933763562916,0.36271082535638915,0.4969499444539611,0.2379653885956444,0.2594366840206058,0.2777229719792367,0.6530542083324269,0.34613498454442004,0.3712740604925302,0.5915372414090176,0.8123528188539033,0.8013094146692631,0.6150518569095152,0.25221973558872046,0.9006775117950834,0.43868712784991987,0.5307926575183646,0.14031905677597772,0.7852344303491114,0.10081776199336473,0
0.563246469223416,0.051667971286368894,0.2728639769086222,0.17984882421185738,0.05169705347159677,0.22272634486602932,0.06570941392043647,0.26011994002998506,0.2362637362637363,0.35162133056145806,0.1816155988857939,0.48386451578398987,0.6332472491304085,0.10591983010353068,0.7036979248305686,0.026782175545783035,0.004621262671143622,0.0006241491659335106,0.09385670059653041,0.7410639135018459,0.2574005822700085,0.21830731389509106,0.051697053470665076,0.2273741316550113,0.13876852271596796,0.020387689087831534,0.323092581668872,0.3861511276870948,0.3412208250070684,0.5213636370826954,0.5084936192564092,0.6725784442654141,0.15548780559717987,0.7268508515684724,0.729841291599842,0.7305992110515973,0.4658559069033652,0.4998340798088786,0.5001659201911214,0.04816757346730226,0.061321349183870034,0.6110436683760515,0.3889563316239485,0.22170768157084525,0.20008520109114844,0.6033108444476872,0.3966891555523126,0.18739725958791303,0.1709465362188053,0.6409182244984204,0.3158548431142437,0.3370946200789332,0.18141447035665037,0.30766093270601363,0.6188413643746616,0.45276073619631907,0.49397590361445787,0.3861946197898977,0.2925240033843852,0.08673809732928937,0.07971853838613073,0.00478497672736087,0.4204532995003367,0.33530571992110453,0.31183763135141207,0.6866863469807247,0.5748847623050295,0.7216535331917315,0.6408527216991563,0.09310662817020815,0.3277853499847947,0.1720399657465701,0.15299057133514754,0.8014810044337557,0.16881081450032487,0.19027136921566257,0.135154310021539,0.49438190448419167,0.07218892937459637,0.43065916869168075,0.9196571868675306,0.6569205807791654,0.788810578843776,0.1902713692156623,0.1351543100215391,0.4943819044841917,0.07218892937459603,0.7273100831464792,0.6526339937642549,0.33192908691588846,0.5571476468890432,0.37762496414491115,0.5181980103836566,0.2872038739102325,0.2008221629473894,0.29722981937551857,0.20050715511931347,0.1720331292114866,0.10758341620690887,0.5073216917813298,0.07835301634046532,0.43419247282126366,0.5536239272879049,0.5743084302195498,0.6961472196527182,0.2007047818308389,0.09313732055514024,0.20526792565221647,0.050465220727939186,0.567270774278992,0.10403956455342972,0.7822207900601473,0.07786073141472849,3
0.303211979454834,0.13960029363950363,0.527004754865945,0.2779897862823316,0.13945013625013147,0.2696538452035201,0.13605325385164588,0.4587706146926537,0.23076923076923084,0.2789840051337958,0.19052924791086354,0.7399202663155046,0.8357708149270936,0.22219272630740647,0.6412711775760396,0.13372046759804174,0.0073503841300929145,0.0002394668090181959,0.2905311939175679,0.9193840016496858,0.08076485392949845,0.2750668554552844,0.13945013630841605,0.334178812335237,0.2573758149839941,0.06119666918555633,0.18160681554952532,0.5535756144286936,0.29646213486800377,0.4932512320946266,0.47271948179078327,0.647473312287927,0.06250000066406249,0.5865598055570533,0.635704500148909,0.5305480504778393,0.4795800376574624,0.5982730694218278,0.4017269305781722,0.1359427974912224,0.1495690815240401,0.4633530986298616,0.5366469013701383,0.2872382462760753,0.32859351970532535,0.4824939292221303,0.5175060707778696,0.2588521181654247,0.2878428939614202,0.8054241423977369,0.33530849129966434,0.17511363645499337,0.1897792469748879,0.1858786712604033,0.11965349214943151,0.13496932515337423,0.14725568942436412,0.8284204074781094,0.6492470969086829,0.0270093444811781,0.013825951493409497,0.001858549468087507,0.04766380026001284,0.05996055226824457,0.7131483268132305,0.18774303927458577,0.17618344096689476,0.3301760288386022,0.21927668182238236,0.417262748987139,0.7051162964594186,0.4826761546243074,0.4821141491045732,0.3467767552014747,0.36878780567517416,0.4538391414402293,0.497435352253672,0.37724612176207156,0.5381455707107469,0.6898323563465052,0.4178514398627899,0.4092087386979173,0.7937031772711832,0.4538391414402281,0.4974353522536733,0.3772461217620715,0.5381455707107499,0.26155906390917855,0.27908244932173876,0.32145449106941976,0.4507948441321979,0.19060495465594085,0.42262759004484335,0.41153642149245667,0.2970159769890722,0.3203923329769418,0.2827204659460947,0.5122825715457598,0.43165543047399957,0.23294524271914208,0.35254896364482136,0.5187541199802613,0.7555057353662856,0.5191375971952726,0.928203932277532,0.6472328051299729,0.4184848810628773,0.47929766901417137,0.359858649021279,0.4178777581751742,0.48838519387900586,0.4932125010471049,0.5650630050838388,1
0.38570023212415205,0.14592368204757392,0.43544697227187534,0.2285169476622731,0.14576733968609246,0.2399799073053342,0.1539253304349334,0.41041979010494745,0.20467032967032972,0.25977771676787187,0.1880222841225627,0.6456368538654725,0.6834076078619314,0.2569684098752323,0.49008005575619473,0.5357764151115005,0.021711808669289918,0.0010349670545288466,0.43228546565889425,0.9548714191539992,0.04510976286563098,0.42314929634704956,0.14576733973767345,0.26605063130014467,0.341088334104343,0.05258556464572252,0.1293516305690113,0.5299282772044096,0.18391063956626225,0.3994704337522629,0.3719726176848933,0.530261689098765,0.11590909194744317,0.588421783030467,0.6243839216512248,0.5554825669936676,0.759944417881862,0.6490643124884055,0.35093568751159465,0.14707026374486418,0.1485795661403874,0.4095666020905391,0.5904333979094609,0.21649787455581782,0.27120762622204553,0.457617938495259,0.542382061504741,0.20860981102333737,0.24175029449328903,0.7375953573438092,0.33145213145353536,0.20166400193445524,0.22728422315490598,0.21704958702862448,0.37736870600974554,0.2846625766871166,0.3105756358768407,0.75058654518057,0.6088965800541992,0.04256865549733365,0.036184881241705505,0.0027233965228450085,0.1588741130585969,0.1321499013806706,0.5058773185153911,0.32946425577326577,0.2923724519276817,0.6599685769314745,0.4032825290997775,0.34185744815539304,0.5029134301212703,0.548936626517685,0.569561369959965,0.5040467781716269,0.6003901711975322,0.47367670886577645,0.5238033038608769,0.46281583411176463,0.603776023999914,0.6331597765442217,0.2570268305216915,0.38846756871961663,0.7821497517770155,0.4736767088657757,0.5238033038608767,0.46281583411176463,0.6037760239999155,0.26274031826275734,0.2601080937170785,0.32145449106941976,0.4507948441321979,0.18779965451360628,0.32897132398901263,0.4089813957917405,0.4717376999173266,0.5485303805093701,0.49983097027002793,0.6390888089638105,0.6206438444193241,0.328391595844442,0.6325463679666582,0.7899890958451061,0.624175936825504,0.2950940388684127,0.875807692098159,0.6122981361509885,0.609188565898009,0.40251302867088823,0.5990989341690155,0.5571229321878967,0.5309120166570621,0.43005064319481795,0.48453408577882673,2
0.38316235036235646,0.10165830205224644,0.4384348344082437,0.22723268208767988,0.1015715707116445,0.23798484686884014,0.10677709073402855,0.41679160419790107,0.20329670329670335,0.2563218401940972,0.19498607242339835,0.5985755400021944,0.6815073971082198,0.19644279267321477,0.6289592759658483,0.2087846906103758,0.01571629265097699,0.000726241086558594,0.2282947261682266,0.8915884939379463,0.10841536596732596,0.3772967156615856,0.10157157071644862,0.27930833541596073,0.2221979103306801,0.04041301488342808,0.21211090979249927,0.48920480269438515,0.28455496422920323,0.3821729491380673,0.3621708222533768,0.6409524982089783,0.0,0.6969003759728043,0.7069439622508757,0.6926375850130757,0.734372210730383,0.6625852701366437,0.3374147298633564,0.10500654216597055,0.1011521826025241,0.4448450631607602,0.5551549368392398,0.23561963247354,0.2782348620407118,0.46769906998800004,0.5323009300119999,0.21045171123247608,0.23995126589235946,0.821459060219812,0.37465306708571244,0.2973169286956987,0.24538998738108253,0.25730496995541524,0.44233892799133734,0.49938650306748467,0.5060240963855421,0.5446652691081,0.38757035474733603,0.16036739676770378,0.1705782932153862,0.023169062356773514,0.18706827686668862,0.21696252465483232,0.7288144703344754,0.23497013585676085,0.1970485161637262,0.19710051021990543,0.16178904002100405,0.7147979507912202,0.7467950378895641,0.30724711636922897,0.36890060901878957,0.6077766422390044,0.4146802661944915,0.27243237182934743,0.3243772651226912,0.7401755213327813,0.46959369025840464,0.6276745560570034,0.5541898630236521,0.4477958145000812,0.782813774954957,0.272432371829347,0.32437726512269227,0.7401755213327814,0.4695936902584047,0.26243482144717656,0.2841422774829815,0.32145449106941976,0.4507948441321979,0.1913530346938967,0.7913996565224557,0.3629973895629114,0.31474250857570135,0.4623480508723396,0.4552654583126064,0.2801569741888018,0.28119352954715815,0.7408158541127855,0.4075111107247176,0.41862706017762236,0.5459730438117797,0.6431983589531063,0.8544918453500205,0.41284386193817,0.24899668447992498,0.3862891018294543,0.4661660385360731,0.5614208103530675,0.30223215095169514,0.5191861568101039,0.4249677733822007,2
0.38100286683210505,0.10392188952727197,0.4401874992933318,0.1989923775179181,0.10398979752051174,0.20816462130002078,0.10898836719819407,0.42578710644677653,0.15934065934065939,0.1988786282617987,0.15320334261838442,0.7191586102774968,0.8589617487403746,0.14972126360499072,0.5683841775256986,0.29537347993509855,0.021691627744979788,0.0011738120665789604,0.2380668044438887,0.896673185901426,0.10323270768135007,0.4230158299138522,0.10398979752783913,0.24032720643897681,0.26651952823151714,0.03641232879995655,0.17468248692515362,0.47321743521986237,0.21140855473883088,0.3945454542258727,0.3918358271139545,0.6725784442654141,0.05182926853239328,0.7224292175117286,0.7259962514832405,0.7257940998442547,0.6020198703421733,0.5931983988806757,0.4068016011193243,0.10203253138963161,0.11180346855642051,0.39290770672007425,0.6070922932799255,0.1916716584697568,0.2479363030980081,0.4209464217574842,0.5790535782425157,0.17558114888874926,0.21692579984679847,0.6188198965847751,0.44805399505074406,0.2514105436248235,0.21926067140979938,0.2248047631488609,0.3492149431510557,0.4822085889570552,0.4685408299866131,0.33967309621683234,0.22468148765802995,0.1426063797370741,0.10608672337874786,0.05813853522779392,0.2277931801450433,0.30177514792899407,0.5145569192350958,0.43087318563875243,0.28407580468066984,0.2652532281854241,0.23036566856579538,0.15513956038154597,0.5047894424887187,0.24853340160829437,0.265614400497569,0.5097440753768171,0.2325371327344029,0.28778608574846454,0.31885947318789043,0.6598153660613219,0.39865890081973054,0.08518043751233217,0.7760012642248686,1.0,0.7668923865077846,0.2877860857484644,0.31885947318789076,0.659815366061322,0.3986589008197266,0.27557118451714757,0.24619356627366099,0.32145449106941976,0.4507948441321979,0.1857424344092276,0.8270987917090589,0.2777402313677314,0.22675014951363873,0.5383444887164219,0.3345628130577955,0.23715867758129477,0.23962337322689853,0.6566097087058083,0.3363500950362252,0.3571558555375035,0.09906150475067699,0.3268621738921905,0.4806849440616191,0.46678028909288927,0.20954612495408972,0.6360936664977198,0.429691231290073,0.542586140190568,0.22741935113265352,0.2040142528388062,0.2178779632321624,2
0.3558271311679657,0.12435645878150275,0.46739796640333353,0.25878235507810443,0.12431110754558489,0.26406460473516424,0.1273998483246653,0.4295352323838081,0.2953296703296704,0.36787132450605464,0.24791086350974934,0.6807056841325595,0.796240814068878,0.19803557207326786,0.6911441498448246,0.196265430267195,0.010867519280440342,0.00029745501993324333,0.3011794190112794,0.9231234718900195,0.07705294236143292,0.32650188878769115,0.12431110760882319,0.31647559695585636,0.24096128134423117,0.05302958171162718,0.19501688723796937,0.5312360404538525,0.2981455654556825,0.4820062710124903,0.4681371032760383,0.6180903684960958,0.17346938773341836,0.621667909877377,0.6536488308122743,0.5923218091541287,0.636977584474578,0.595383527850257,0.40461647214974283,0.12135564693246281,0.13355815027217574,0.46089825455457356,0.5391017454454264,0.2713224868625994,0.31175668669829204,0.4779179553516708,0.5220820446483292,0.2425856467730103,0.2717888880764086,0.7075198575282533,0.4124223587442093,0.28907514969142656,0.19599407394066548,0.233161129646333,0.33297238765565784,0.4110429447852761,0.4484605087014726,0.6554940057229632,0.5367990582580225,0.11112281653442954,0.10680482672137828,0.009109366782359877,0.1635731403599455,0.22090729783037474,0.3013063465856601,0.57802725925461,0.4442705584781556,0.4285665895279709,0.4355767711946296,0.7446381437312051,0.30204965561317615,0.5325380752559727,0.467590505528918,0.290414702747801,0.34548489826122025,0.5060895836580657,0.5007920109809317,0.21638289814644088,0.4524426532093511,0.6185770817339338,0.5230038826919272,0.4391661044504782,0.3967911969784678,0.5060895836580652,0.5007920109809316,0.2163828981464408,0.4524426532093518,0.326985691632067,0.3520283053129886,0.19482648091277982,0.27219373623204235,0.20799781553841507,0.24621948605684474,0.4355706452100392,0.6239571436915967,0.4320486254451366,0.4169390537105133,0.6343156084269568,0.5383261532102639,0.2047343513482434,0.4336735555759039,0.6265103653242199,0.5203551595707816,0.540907928047382,0.6658163554373354,0.47785471452195666,0.48589800879051526,0.5627730555385826,0.5318137694156304,0.3521525667909847,0.8764937005101533,0.4667913073340807,0.8294713539643841,0
0.3523800150993983,0.1734405601735672,0.47151286759422384,0.27899135077599496,0.1733567295260381,0.28371345615262833,0.1775547892450235,0.43103448275862066,0.2802197802197803,0.3484973632549025,0.23119777158774374,0.7530790623943195,0.783539371102819,0.2099814175736661,0.6601571803080457,0.2986558867391922,0.018905364555124444,0.00044528412099836427,0.274398191687437,0.9133371155033384,0.08688351664245458,0.4033779201982841,0.17335672958276707,0.32908504528203975,0.33088308221248297,0.07293303401336321,0.1345914345058788,0.5810788940095093,0.23271714653705897,0.27812220644829766,0.26556651659223274,0.47168687409354204,0.04086538415054086,0.6621924651475868,0.6812476302193087,0.6483025414697989,0.747094383759185,0.7219783550517413,0.27802164494825854,0.18218614992517493,0.16343489086720145,0.38191141921820904,0.6180885807817907,0.2613542163261799,0.3402109969721753,0.444366120892133,0.555633879107867,0.25382885442762415,0.2994111983325964,0.7953201912358259,0.4073852128486015,0.181388994557523,0.17657820109775707,0.17527068884902186,0.03887384948565241,0.07779141104294479,0.04243641231593039,0.0703034419759448,0.05520778408603205,0.0379376546781874,0.037927782421400096,0.003718736451037572,0.019626270695299403,0.01992110453648915,0.5924726586150545,0.11927495446966871,0.14929325365042337,0.2228907512085709,0.12544180569537236,0.2457745032532012,0.5862095444610529,0.9530348402701547,0.7757491797572691,0.24342028284753553,0.6467582012559099,0.9429092631814711,0.8495426609623408,0.11576729266948588,0.7434838370673511,0.3940511672699951,0.53873522524284,0.6090688460467745,0.788981520993874,0.9429092631814714,0.8495426609623418,0.11576729266948593,0.7434838370673519,0.3213444744690339,0.274022621160496,0.1867207367725154,0.30944957198768785,0.1939713148267423,0.2655358738606641,0.8438486746614643,0.7010277960309164,0.18612919501871036,0.6383767697776124,0.8364957673696185,0.657396132679898,0.2690048288285204,0.520302647714444,0.39249630422348597,0.8293826130019013,0.4813257256988697,0.9083820282141151,0.7581247652755216,0.6925453127029235,0.5722803457001221,0.6214864881300549,0.11155629620621255,0.529058485909585,0.24479686930224742,0.41205734234662317,1
0.4477019989634017,0.10929190772217612,0.3743189395231049,0.19679048096901208,0.10963878883010417,0.21929377561438124,0.12199656158482805,0.33958020989505255,0.25824175824175827,0.3521288890396012,0.20835654596100278,0.732111750026461,0.7907674293741694,0.11574196973719142,0.7078934138258157,0.2415425331895188,0.01889432349116133,0.0016066818100293145,0.2219653427229735,0.8876216361256172,0.11191546429969385,0.40329486758297994,0.10963878886918821,0.23781771444499877,0.28425369961435354,0.03771793453742685,0.16223482151626498,0.4786106515035218,0.19719294378962413,0.3332267748633131,0.3521963814221921,0.4495749815157005,0.085000000053125,0.66608968741465,0.6879436887283068,0.6464312400145324,0.6696047840215313,0.55510892232661,0.44489107767339,0.10415999462375614,0.12238127733555573,0.5905887609534528,0.4094112390465471,0.2279831811445882,0.21303847635383313,0.590940427549843,0.40905957245015695,0.20426856051907388,0.19084034882251713,0.36885073717970235,0.5174816498262963,0.2519133156279527,0.22368495593668797,0.24675229652946723,0.558202490525176,0.4171779141104295,0.5448460508701473,0.28402059642178157,0.2227961643634045,0.07073955241732342,0.07174416957239434,0.0015785432209771007,0.5661231458421441,0.5463510848126233,0.29891706135442997,0.587165766580741,0.6539071035916687,0.7901128241389579,0.6352758043896035,0.2705381488465496,0.3152183927580566,0.5093311307969726,0.4513154232106884,0.2269720272660065,0.29079440126928763,0.5297362390391376,0.7051135317657755,0.43636858335841616,0.6765196332022794,0.6728943929681972,0.5004370308353793,0.3784390597972963,0.6664586493779802,0.5297362390391369,0.7051135317657755,0.4363685833584161,0.6765196332022786,0.807593888850971,0.867919951586362,0.7644890519679326,0.8052097629945731,0.9813255547753075,0.5106259582798205,0.40889856188592544,0.6306293105297747,0.7986294032322321,0.702962420730743,0.5109759484705978,0.7037899074838583,0.4909523790704775,0.6500598883362843,0.5850002385597001,0.7194404600387098,0.40891756711954835,0.75443175887743,0.8545777820245584,0.6688749940156559,0.646116713142065,0.758679819691247,0.682459453130066,0.32185430330553244,0.4887412982856492,0.2951872194042192,3
0.3274688362962006,0.16119286133603128,0.4990999632175944,0.22447665816286771,0.16151713420474495,0.2225836041836226,0.16115093493879848,0.46776611694152914,0.23351648351648358,0.2798454087634589,0.16935933147632315,0.8448575005753547,0.8697966383307599,0.15529599150517656,0.5291736127676467,0.49750704435775944,0.056288132731389745,0.0016393512246293412,0.1577907181135095,0.8391367728904046,0.1611178968761906,0.5630030591658793,0.1615171341144405,0.24900536597411355,0.40367242531920533,0.0545003330097185,0.10202125237909596,0.5354937732822571,0.14480421178572614,0.7091829696556539,0.6937655632609182,0.7990822270996158,0.3035714290647321,0.8589456317412569,0.8267078979803106,0.9037706652152151,0.3596463860007906,0.6350614959715843,0.36493850402841566,0.16113693652136943,0.16756842776425906,0.6129889629076843,0.38701103709231566,0.24270271106336655,0.2191854537508243,0.6303946804847202,0.3696053195152798,0.2327801421486444,0.20495339004131594,0.3901875417094945,0.8437657806307132,0.17204959295836517,0.16625163657285602,0.16650844258573183,0.35571196534921495,0.26134969325153373,0.285140562248996,0.28453199355093084,0.21645504040416425,0.027539467300912526,0.011337930832284607,0.002668584626323101,0.38442742352333065,0.29980276134122286,0.6757338899330808,0.22207549740758414,0.18711865540280154,0.23419025570883842,0.1330938550270843,0.22274431285138716,0.6817224222373369,0.45854528503736874,0.6673668956767265,0.6877662369642865,0.6645920589706705,0.31636843833681916,0.3999920052073954,0.6243691420196735,0.4528093805776418,0.4307088175869486,0.18529221527065043,0.3929196977621385,0.10091997110025464,0.31636843833681805,0.39999200520739664,0.6243691420196736,0.45280938057764436,0.601878443175226,0.492227710614089,0.2727653894188384,0.44174159791413814,0.28972555968509506,0.3584405449793306,0.48524668306802377,0.3470811015447082,0.3415263272109439,0.36607954006567456,0.5381715596500678,0.45642889902248557,0.33210714873278757,0.4421253539182025,0.11396013518774467,0.25665906630569874,0.7551013713637419,0.3440830361259389,0.319043245824933,0.45113802540199555,0.29841969805711255,0.27225191914354796,0.5588699939443199,0.4562543543568204,0.7913077010181515,0.6029046832889783,3
0.3561253435054348,0.06890305449495225,0.46638511121212567,0.07432838979548874,0.0688277076933176,0.0755963940028968,0.07011819247088527,0.42428785607196395,0.07692307692307694,0.09586678231086654,0.06908077994428971,0.5703385988971833,0.748953282529729,0.080169896469339,0.7887225896766303,0.17687125845375115,0.08019607098809826,0.004285573807231506,0.036404523902955455,0.5120304944452037,0.487577436434939,0.6160617100445175,0.06882770769008204,0.07702058800215143,0.45474063488161487,0.011521769862433015,0.08443051949050365,0.30494486665575127,0.03620855340807612,0.7946478884164375,0.7724962984834777,0.9455346828937099,0.09107142893191963,0.6106716167413855,0.645179449267046,0.5775972463431245,0.30329031321071254,0.41115960286604425,0.5888403971339558,0.05764693036394247,0.08800113117125821,0.6649477104898198,0.3350522895101802,0.08287307465561264,0.06022763892257618,0.6166625176886898,0.3833374823113101,0.07937346409999971,0.06610176712099677,0.8113656096587862,0.5411153548989088,0.21075930507660431,0.17082224380907307,0.1881484718419787,0.0,0.03374233128834356,0.03681392235609103,0.0,0.0,0.0464456693986856,0.046435884447369166,0.0,0.0,0.014930966469428006,0.7594226209188862,0.19254065466740578,0.20109654110018102,0.9536019994893119,0.32104544725087314,0.16045680900525613,0.7589341546850317,0.26483637955823597,0.3569759130740193,0.9493204455477834,0.4650383917368699,0.27335029999281324,0.3095583173097242,0.8888252910848582,0.48075907630467096,0.35486490576403984,0.414850485022907,0.6091187468038456,0.8249751165687985,0.27335029999281535,0.30955831730972444,0.8888252910848573,0.4807590763046709,0.26283518420023144,0.32675508205911635,0.2921191796413598,0.48237419270403736,0.20740375551458654,0.6863329957099159,0.266291826674239,0.41027993182710987,0.43462948969016224,0.49526982678176723,0.3992095888700264,0.4533204529340661,0.5829804949009985,0.5098600367036672,0.3867324937947219,0.4463475320667765,0.5705292228562088,0.6555737273907749,0.6144193403461152,0.39596012971605743,0.7055316447178024,0.5717760907618714,0.3757792210738738,0.6317892365049109,0.0,0.49628439697041227,1
0.4617423575983539,0.06149213049672582,0.3595948778026853,0.06271266676566568,0.06155554652533303,0.07404198813857027,0.0701997403859985,0.3343328335832084,0.05082417582417584,0.0742465461708941,0.04150417827298051,0.47782293518041286,0.8098495029152296,0.08999203610299975,0.6729411764340484,0.26246750082677456,0.17041035135235677,0.01657793109171056,0.023773303065934746,0.40232002848305903,0.5948244319824552,0.7300494355239587,0.061555546523595316,0.055551093711888835,0.4981118621048851,0.008720797178561113,0.07191762807918858,0.2676148691658391,0.019810850427740334,0.7458941891399017,0.7420307720431975,0.9251527771098187,0.05182926853239328,0.5579426829592218,0.597982811124729,0.5214076597518882,0.3983911856371489,0.28891576262683955,0.7110842373731605,0.043744333516824885,0.0871998985070826,0.6215948692236535,0.37840513077634663,0.05858356315319324,0.0447924612537826,0.5442013040396724,0.45579869596032757,0.0566705970129209,0.054949781084724154,0.6014330067180469,0.4836710598110626,0.25430068232344216,0.21294914695517597,0.23068226135432018,0.3069842988630211,0.25398773006134967,0.27710843373493976,0.28957960032948027,0.15487547669556473,0.06798819196614567,0.023636751817023936,0.019361047047617163,0.24032391961530633,0.21104536489151873,0.6561876261655232,0.20673487318132208,0.19738812831018981,0.5537996440325674,0.19569640139741196,0.6179081793347625,0.6498637493418508,0.4443495373125078,0.41236051886214475,0.40843879708592956,0.3960366306404649,0.37660283282294055,0.3682096335971077,0.41565955761219026,0.41035966925642275,0.38765499740245285,0.7167732951829873,0.6116152866680233,0.8501154188390423,0.3766028328229376,0.3682096335971088,0.4156595576121903,0.41035966925642237,0.24166173083484535,0.2179952689131979,0.1746609148196835,0.2769285297300323,0.14014352757772888,0.6385949191063648,0.6538318061368584,0.7016364142200241,0.2958745234128646,0.6517205315126592,0.42077157630355017,0.3311637383161231,0.3315137547710615,0.3269269782262706,0.35593161773820997,0.7631306194710943,0.6602560583843128,0.9897315228424617,0.4904050821618845,0.34628214155903875,0.4861636901081139,0.37978353280150057,0.4204733110732592,0.0980651977617234,0.5854032094146217,0.10863402684391077,0
0.36529932126167286,0.06959233397590728,0.4571980814634323,0.09200536903800428,0.06988651303620493,0.0947041460432235,0.07150707063861017,0.4077961019490256,0.08241758241758244,0.10519229341410372,0.0913649025069638,0.5690107269946002,0.7897299904566456,0.07778072736925937,0.4705882353409635,0.31363895612592974,0.06513988327412527,0.002733776613730236,0.08435311624400196,0.7192277901489573,0.2808414059095291,0.5848454581676698,0.06988651304928115,0.10504782233081895,0.3749962429602532,0.014229260488692497,0.11361760189489686,0.3343240651536681,0.06736446008051045,0.803347594892636,0.8093515714613008,0.9416973399197355,0.1847826093654891,0.6396154269002934,0.6689468113404311,0.6112991712042732,0.5986504522301788,0.4650630571726201,0.5349369428273799,0.06204553791180044,0.08517945278819261,0.496842551898647,0.5031574481013529,0.0928624700501455,0.10115657913615284,0.4995040554365616,0.5004959445634385,0.08829117849746657,0.09588989505155562,0.4620156069478663,0.5308619633873679,0.20709013870599227,0.2203313293230758,0.21977865119940926,0.3416350839198701,0.252760736196319,0.2757697456492637,0.18650380034431469,0.15733865924390872,0.019917297354088474,0.021976458846020074,0.00046315639224822066,0.35623325971523895,0.2781065088757396,0.7910383380621038,0.1862143374874971,0.1349396696669872,0.4782855168131766,0.09683163222923116,0.09544703861251153,0.777990539929756,0.6132147805747596,0.5198770916789462,0.4336909857086495,0.4821891184833752,0.684805941889539,0.6624521538338839,0.5436389960381639,0.694591221411542,0.5977959751329882,0.49514900488962305,0.4257101640005412,0.8273038734218151,0.6848059418895402,0.6624521538338833,0.5436389960381642,0.6945912214115433,0.2727752964388318,0.22166730169822224,0.16020502627422217,0.326933699904516,0.14113264857680033,0.529201594946524,0.5513478952771593,0.7310223156161977,0.6020134599376405,0.691200414345861,0.7496024462719475,0.6719799146407425,0.39431970368119795,0.511491045581186,0.41542901118642533,0.5811030815740675,0.587704845976867,0.9296503253022517,0.5005110059155623,0.6755146246162902,0.505856439379428,0.5758514924439503,0.4007576912583803,0.5727841960455532,0.39646959428166434,0.5247159570394149,0
0.25989248398125886,0.10810315146693317,0.5796699680263718,0.08409803666126382,0.10827669791318698,0.07458989243369779,0.10006250878489414,0.5299850074962519,0.10302197802197806,0.11238415518916439,0.08440111420612814,0.7201820722545228,0.8792538157266879,0.07937350676931246,0.4977375565340595,0.6045200070495764,0.29631444144619945,0.00289712368673037,0.03294981951126649,0.48732072635745205,0.5142960121726353,0.8142282618813608,0.10827669795544104,0.07290209038778207,0.6916126764251148,0.01644184851009784,0.03315575146381684,0.35490841842680254,0.01047238887998693,0.7378291538929146,0.7428378829379138,0.9210680180376245,0.05592105165995065,0.6836892259778753,0.7013051050613248,0.6687632342591421,0.29226412513699085,0.4387257333902027,0.5612742666097973,0.09279090745878384,0.13366106347377274,0.8501782894072056,0.1498217105927946,0.09319905769193812,0.03973847572795068,0.7147302713598599,0.28526972864013994,0.09956654687941369,0.06796425491083397,0.3959395880344075,0.4803916392348049,0.23626038504322414,0.17936948409744674,0.20465073860907967,0.41959935029778017,0.45276073619631907,0.49397590361445787,0.3827436651168601,0.32201628428835943,0.07537263144842579,0.04751946276641721,0.006756242094967356,0.28731419262879254,0.33530571992110453,0.8338893927024977,0.18160709031217157,0.1576658730963282,0.7311584154111772,0.167002635707475,0.10147142013572713,0.8281585143080535,0.6582959160112309,0.8057477718914212,0.6852841931758118,0.9600163427232205,0.6256164988215138,0.7888984708541591,0.7310903733495465,0.9955667656049261,0.36174141459223946,0.42796450758998494,0.596160049617587,0.8217169434737306,0.6256164988215132,0.788898470854161,0.7310903733495473,0.9955667656049245,0.25010198257227223,0.3238561088077814,0.2530546008828042,0.33372217777012314,0.1701138938495934,0.699778908424785,0.22696974663165898,0.27133472193977204,0.6211241367897724,0.3451449894044244,0.572192191365585,0.7212564910975247,0.6621198136002862,0.785623453267879,0.4367666172645177,0.4682906872675471,0.5806755323725655,0.8976861132171032,0.7835057670452746,0.6973002738469112,0.6855414525380628,0.8664539072200717,0.45454194286480715,0.3842479065653766,0.524691911403239,0.4816768995875055,3
0.350861920049089,0.07477220449783778,0.4726641389258265,0.08969920535789457,0.07470385332581525,0.09063986360824586,0.07571256408444091,0.4355322338830584,0.08791208791208792,0.10796062811290993,0.06852367688022284,0.6138203345259421,0.7002447361816905,0.08308999203610301,0.8367371896921227,0.23134615000389158,0.0984322400363358,0.003583181393330931,0.03898596000062332,0.5302183862881705,0.4701272142398728,0.6469354805463317,0.07470385334473281,0.09879140337422491,0.4146687416743132,0.014418327985058498,0.09792871606231918,0.33618915391125137,0.05500058771835557,0.7864196473003288,0.7724962984834777,0.9455346828937099,0.0965909081853693,0.6891218887429016,0.704888146331959,0.676582386692282,0.2587986775071349,0.4755513307116217,0.5244486692883783,0.06690325506576432,0.09005418303226354,0.6791260498086047,0.32087395019139553,0.10566099582002755,0.0777047439677977,0.6472677556623184,0.35273224433768163,0.09947917757264657,0.07940739085501164,0.8018847136184641,0.4985142002684767,0.19240650057849187,0.14965869747493205,0.16706542822150278,0.14889009204114784,0.10147239263803683,0.11070950468540831,0.8727245755599017,0.6775024217974028,0.008354334298297052,0.003434326532192013,0.00018975121203274484,0.05956800275676269,0.04497041420118343,0.3203154383741994,0.892543831530512,0.7353928997179364,0.18036957498410572,0.7478121940163635,0.32132118318960934,0.32583449003220616,0.4044134429907198,0.4167984414672679,0.25688104425479674,0.25444342145420024,0.4924041636406174,0.5656861687638413,0.2588732803029767,0.3933605726750955,0.8069121129047017,0.17645706456644528,0.6148448919907942,0.33482103742660996,0.49240416364061806,0.565686168763841,0.25887328030297646,0.3933605726750955,0.8468167782180045,0.5775399527215832,0.5144083111818726,0.8048894847441928,0.6109651231357324,0.28348903624569577,0.2947411498203344,0.21792086343899278,0.38558631344810756,0.14551279539230838,0.25029144509964335,0.3013828672118869,0.5092246123689466,0.31978452292261844,0.40388418980357965,0.41825183980970554,0.5001879416937021,0.6249397946091083,0.5923676343182828,0.276106145411696,0.6389123742681495,0.3703326485104189,0.4993301803595801,0.18691236751890844,0.6485009659312639,0.17142100260367718,1
0.34426631261277163,0.07407996493100938,0.4797156002943542,0.11785207122743228,0.07401846402646524,0.1184127332469197,0.07446833937229375,0.4287856071964019,0.10164835164835166,0.12613163132172997,0.08746518105849582,0.533656138246592,0.7519672131526144,0.11547650650384922,0.6725526982440243,0.19932903778352254,0.046510679106481344,0.0017863635903294613,0.07456297550867179,0.6914704740666837,0.30871580268202325,0.5345919809151964,0.0740184640281065,0.1380843167376593,0.31937702952068564,0.018050221782750484,0.1408176397244672,0.36838025615134473,0.10591073463416267,0.7268090916671844,0.7098979395076065,0.9134221843134129,0.10282258118926409,0.6167883825798657,0.6537003857594827,0.5787447190895065,0.5500269249314678,0.5239881524828012,0.4760118475171988,0.06947092255859455,0.0852444045564113,0.4712393086594491,0.5287606913405508,0.11873688974944413,0.13575204664455065,0.48557346613261065,0.5144265338673892,0.11019779419753267,0.12280714140057267,0.8728800240691545,0.5031688150698642,0.2803310197492699,0.151895624510977,0.18994152126700198,0.2831618841364375,0.46134969325153374,0.5033467202141901,0.8351427422597506,0.6738666601267917,0.14343311658729746,0.1157020768120384,0.028638166762325556,0.11924564948389017,0.21499013806706113,0.36790240280811193,0.4543814577839659,0.47853000481572505,0.3139382158350873,0.4856129229369879,0.7766841012577343,0.3723675237693237,0.7130957905393658,0.6215500823831179,0.38156905183483486,0.500536407561032,0.6225138382034408,0.5743604233327997,0.3354237267334386,0.4967742964451994,0.12608273699350625,0.5495984496405881,0.9352620314921685,0.24095685683286722,0.6225138382034391,0.5743604233328004,0.3354237267334385,0.49677429644519905,0.22938844025784777,0.16774639922339105,0.12437472278035916,0.23083817864939551,0.12748277878961453,0.2791412407176225,0.4845352360375762,0.38493461395200096,0.2861969235603411,0.2777956097500659,0.8091091496617187,0.5008532200418024,0.2170342739175313,0.3550059366063315,0.3375233666090319,0.9234037071032707,0.7655657877455884,0.43906506137885387,0.31923232493268633,0.532758842510154,0.517647277908267,0.39458310548954856,0.535153690600217,0.6550995421971381,0.6849391590209452,0.8043132279427003,2
