ECG_Rate_Mean,HRV_RMSSD,HRV_MeanNN,HRV_SDNN,HRV_SDSD,HRV_CVNN,HRV_CVSD,HRV_MedianNN,HRV_MadNN,HRV_MCVNN,HRV_IQRNN,HRV_pNN50,HRV_pNN20,HRV_TINN,HRV_HTI,HRV_LF,HRV_HF,HRV_VHF,HRV_LFHF,HRV_LFn,HRV_HFn,HRV_LnHF,HRV_SD1,HRV_SD2,HRV_SD1SD2,HRV_S,HRV_CSI,HRV_CVI,HRV_CSI_Modified,HRV_PIP,HRV_IALS,HRV_PSS,HRV_PAS,HRV_GI,HRV_SI,HRV_AI,HRV_PI,HRV_C1d,HRV_C1a,HRV_SD1d,HRV_SD1a,HRV_C2d,HRV_C2a,HRV_SD2d,HRV_SD2a,HRV_Cd,HRV_Ca,HRV_SDNNd,HRV_SDNNa,HRV_ApEn,HRV_SampEn,max GSR,min GSR,mean GSR,number of peaks,number of peaks SCIPY,number of valleys,mean time between peaks,median time between peaks,mean height of peaks,median height of peaks,variance height of peaks,ratio of peaks,ratio of valleys,0,1,2,3,4,5,6,7,8,9,10,11,12,13,14,15,16,17,18,19,20,21,22,23,24,25,26,27,28,29,30,31,32,33,34,35,36,37,38,39,40,41,42,43,44,45,46,47,48,labels
0.51568813,0.12736409,0.313733298,0.264930965,0.127198308,0.311085971,0.150416616,0.312218891,0.083791209,0.122557447,0.07270195,0.336199557,0.472792396,0.225112822,0.803325266,0.298199394,0.03605439,0.036958909,0.146255253,0.812555593,0.170622511,0.496936088,0.127198308,0.3234392,0.241243313,0.055065852,0.194775025,0.53710151,0.303941657,0.694006876,0.65148284,0.817084689,0.324152543,0.725682122,0.734078259,0.725869432,0.30144459,0.450459344,0.549540656,0.109996113,0.155148169,0.654084019,0.345915981,0.323052541,0.276728845,0.635042808,0.364957192,0.280825503,0.247325027,0.533166293,0.12410664,0.067750877,0.059408044,0.062865415,0.268002166,0.236809816,0.258366801,0.492334899,0.378067099,0.014277298,0.00811551,0.000610904,0.10671491,0.104536489,1.690221544,-1.281648398,-1.418881558,-0.053278265,-1.108888407,-0.214610774,1.738264419,0.50592064,0.329226707,0.060300194,0.78987567,0.676930956,0.629546838,1.426845386,1.495400184,-1.002435926,-1.746429995,0.670579728,0.548592545,0.676930956,0.629546838,1.426845386,1.495400184,0.774188366,-0.186021904,-0.092914812,2.53533395,0.3750676,-0.7014474,1.107376428,-0.029095667,-2.004206327,-0.614966478,0.548046744,-0.200355336,-0.130467145,-0.033524623,0.155218477,-0.807307674,-0.154868986,-0.076580017,0.819872335,-0.114758238,0.780922956,1.060835537,0.21343635,0.301581402,0.203083515,0.177995964,1
0.467098081,0.043952831,0.355906984,0.102285256,0.044035497,0.118364966,0.050788638,0.343703148,0.067307692,0.095073911,0.068523677,0.299532035,0.520438054,0.075126095,0.511010558,0.277252347,0.020028532,0.003975214,0.241106888,0.896790185,0.101514815,0.4115994,0.044035497,0.126800642,0.219017584,0.011469315,0.215218582,0.304319437,0.144760319,0.652339792,0.641101261,0.833540347,0.12878788,0.598712524,0.641560422,0.553622866,0.29973846,0.321550449,0.678449551,0.03252765,0.06232416,0.645306997,0.354693003,0.129675781,0.105734436,0.61618966,0.38381034,0.109945694,0.094781862,0.505026919,0.221545099,0.172199495,0.089017294,0.138215378,0.41959935,0.445398773,0.485943775,0.265216016,0.176208753,0.121209695,0.074224189,0.026754282,0.324906411,0.370808679,-0.021951217,-0.144412709,-0.175342863,0.313263508,0.035089088,-0.674294117,-0.078400953,0.025580155,-0.26789668,-1.192039089,-1.087412688,0.331874394,0.084406438,-0.579926743,-0.106810217,-0.403480307,-0.837965874,-0.300381823,-0.952533652,0.331874394,0.084406438,-0.579926743,-0.106810217,-0.769587147,0.693179457,1.195348257,0.597371433,0.875157734,-0.241644338,0.225982508,0.538906649,-0.083109792,-0.14119527,2.146258112,2.969648131,1.962575246,3.150898515,0.706035649,-1.021212202,-0.958949358,-0.622117393,-2.216461504,2.951329545,-2.097351841,0.028131115,1.855139134,0.710731117,1.535714657,1.408706589,0
0.441127896,0.122873039,0.378374098,0.217923354,0.123035662,0.241491653,0.136518685,0.38155922,0.123626374,0.162664093,0.115877437,0.379860902,0.543856963,0.180514999,0.398190045,0.483728713,0.041581281,0.012451212,0.207563231,0.876347806,0.120318577,0.517985104,0.123035662,0.254804903,0.298746062,0.043926329,0.152920611,0.502048194,0.200705536,0.508821181,0.487902279,0.632126654,0.096590908,0.391059851,0.480905294,0.301715038,0.220699518,0.375951726,0.624048274,0.098971036,0.158996547,0.898909043,0.101090957,0.298204126,0.165640894,0.831144977,0.168855023,0.258623046,0.162454243,0.538166166,0.24339813,0.091803224,0.021745066,0.082112215,0.415268002,0.504294479,0.550200803,0.161593685,0.124955549,0.090752922,0.112091474,0.005827368,0.429851354,0.556213018,0.221546009,-0.48994657,-0.153644491,-0.671715699,-0.655188062,-0.625526972,0.126812514,0.956916172,0.404817201,-0.31341344,0.369823409,0.244002904,-0.008170173,-0.468831423,-0.262967657,0.948235545,-0.692453053,-0.745554889,0.423462403,0.244002904,-0.008170173,-0.468831423,-0.262967657,-0.52090113,-0.510259169,-0.500486736,-0.275613882,-0.558924267,-0.685001889,-0.164774698,0.65666827,-0.262060105,-0.547367834,-0.174459048,-0.380671101,-0.253522174,-0.458548283,1.111282904,-1.443470105,-1.338271015,0.167446162,-0.171146245,-0.601564636,-0.689121814,-1.452979852,-1.689448993,1.803681477,-1.627178535,-0.452180797,0
0.361427995,0.089763864,0.461466529,0.180646815,0.089872607,0.185228591,0.092143726,0.435532234,0.093406593,0.114789996,0.081337047,0.440583559,0.731747773,0.185293337,0.637841461,0.278233324,0.0284206,0.007536181,0.172484285,0.850013832,0.146679354,0.462091252,0.089872607,0.220836042,0.25029638,0.030208278,0.187228617,0.444798464,0.207192192,0.746041519,0.741288231,0.928915056,0,0.693008323,0.705011222,0.685628051,0.235663027,0.536984244,0.463015756,0.084683339,0.102086818,1,0,0.275014428,0.119118445,0.952297665,0.047702335,0.237107831,0.113487798,0.719896136,0.256862351,0.190455586,0.05517546,0.132214303,0.519220357,0.509202454,0.555555556,0.387619505,0.305316612,0.185292833,0.130971084,0.05028049,0.354666917,0.376725838,-0.076206392,-0.023598327,1.016250881,1.62508529,1.62492287,-0.145064585,-0.109711336,-0.420297433,-0.264135589,0.20489012,-0.020019614,-0.528760786,0.035712762,-0.266013187,-0.197485156,1.262158393,-0.076889804,-1.490910332,0.478785298,-0.528760786,0.035712762,-0.266013187,-0.197485156,-1.142660851,-0.770462115,-0.614815574,-0.564939854,-0.706009601,1.154448899,-1.070394487,1.472116803,1.846182685,1.277110153,-0.4923412,-0.108300045,-0.173814622,-0.077077622,-1.074019121,-0.236833806,0.778149119,0.369709412,0.016003446,-0.09018603,-0.781141989,-0.269585682,0.753079403,-1.072418551,0.693472818,-0.348416169,1
0.410925704,0.029662327,0.409727269,0.093274141,0.029630508,0.101567604,0.03207961,0.388305847,0.074175824,0.097520444,0.06908078,0.264417347,0.484722943,0.082293602,0.59931665,0.039841462,0.010257451,0.000707456,0.066988387,0.665825881,0.333617997,0.318729756,0.029630508,0.117863326,0.171262044,0.008337278,0.27121983,0.261760108,0.170022344,0.795084328,0.760941298,0.893960064,0.288135593,0.695641125,0.709434399,0.68546863,0.362543193,0.542243716,0.457756284,0.030192698,0.033623567,0.60060211,0.39939789,0.116091647,0.102719273,0.596161173,0.403838827,0.098531325,0.087783976,0.843118888,0.351366391,0.055399855,0.045408651,0.050567181,0.179209529,0.371779141,0.40562249,0.38428176,0.238165381,0.012074155,0.004326311,0.000573661,0.071472205,0.16469428,0.78042254,-0.558753099,-0.691108074,-0.35437628,-0.669934892,-0.352430964,0.771393276,-0.813510986,-0.737086106,0.306307429,-0.267447658,-0.618994139,-0.513287916,0.020423648,-0.402225791,-0.637748133,-1.131162276,0.076924846,0.603078393,-0.618994139,-0.513287916,0.020423648,-0.402225791,0.111926692,0.196106981,0.194894083,1.054408585,0.330942,-0.879607102,0.130628104,-1.961956359,-0.604844126,-0.673939163,-0.619146744,-0.668392552,-0.649439589,-0.61461135,-1.785018212,0.725757198,1.740807888,0.446175558,-0.93043861,-0.620458777,-0.686523993,-1.176682675,-0.480632107,-0.72887378,-0.629241999,-0.745477895,1
0.495378704,0.046397454,0.330394867,0.161617493,0.046328608,0.18918413,0.055250192,0.325337331,0.14010989,0.196818569,0.12367688,0.323559437,0.576361832,0.151314043,0.645999807,0.126903837,0.010531027,0.006662274,0.201389597,0.86900432,0.123892109,0.322263948,0.046328608,0.204272055,0.141377645,0.017294328,0.318373395,0.362188452,0.30756277,0.342225847,0.328570056,0.631430709,0.166666668,0.576797273,0.625859764,0.524764473,0.514625585,0.483230051,0.516769949,0.042625862,0.056089932,0.735475478,0.264524522,0.218858457,0.159036188,0.719667128,0.280332872,0.184223221,0.136716818,0.803741842,0.26798666,0.078496003,0.063801577,0.070047849,0.127233351,0.390184049,0.425702811,0.248269643,0.213369548,0.041378892,0.018098942,0.003821291,0.053772536,0.181656805,-0.836662068,0.799685309,1.655739376,0.450766753,1.460511404,-0.101810248,-0.835561554,-1.086226028,-1.248504084,-0.141834234,-1.260036905,-0.771988065,-0.484030676,1.470014128,-0.35791776,-1.21786327,0.447687231,0.986757018,0.43209063,-0.771988065,-0.484030676,1.470014128,-0.35791776,1.345752705,-0.28172566,-0.482158306,-0.168818856,-0.3971304,-0.475799691,-0.81382323,-0.58223273,0.002973704,-0.270563914,-0.946441138,-0.433987717,1.511009149,-0.07655992,-0.287947608,-0.462212685,0.268677005,0.568539033,0.612903037,-0.453053093,1.569981004,0.963484335,-0.823265114,-0.707713486,-1.162065714,-0.813395148,0
0.548921706,0.041880633,0.284814395,0.174991578,0.041810143,0.214242404,0.053124935,0.28185907,0.208791209,0.304503771,0.198885794,0.338290926,0.542630078,0.100345102,0.635885123,0.05971423,0.005267665,0.001214649,0.176028118,0.854051533,0.14379539,0.233772705,0.041810143,0.22267578,0.114862243,0.017350243,0.372117846,0.362654686,0.380843607,0.531288538,0.505654999,0.712600659,0.074561403,0.573899913,0.619838092,0.527350345,0.380310279,0.426243456,0.573756544,0.036030812,0.053935717,0.594130732,0.405869268,0.214329104,0.198663978,0.584265643,0.415734357,0.179577443,0.168908533,0.678400702,0.216741193,0.142987504,0.059549893,0.116164778,0.410936654,0.357055215,0.389558233,0.493997915,0.303331657,0.101230241,0.092619298,0.012547715,0.174537537,0.167061144,1.194986125,-1.076022071,-0.622937123,1.893950195,0.02316612,-0.285429148,1.247049425,0.723273495,0.85111775,-0.086419362,0.576972469,1.252889944,1.501479848,0.597297913,1.320772611,0.649083983,-0.034201677,-0.631961217,0.65827519,1.252889944,1.501479848,0.597297913,1.320772611,-0.895421525,-0.439787538,-0.444421665,-0.224536734,-0.522152934,0.472421831,0.609442741,-0.048548942,-1.326341739,0.221534696,0.173751927,-0.074064429,-0.485695967,-0.282265113,0.504272825,-0.268218007,-0.421665553,0.857137496,0.251048874,-0.06914672,-0.051442453,0.366943699,0.852264157,0.442060069,1.957350704,2.367089935,0
0.643067113,0.018514063,0.211990702,0.186126581,0.01853367,0.245612853,0.028972653,0.179910045,0.258241758,0.419525844,0.215041783,0.17247746,0.324645479,0.103796124,0.655842427,0.025407353,0.000229947,0.000370961,0.336230075,0.932208974,0.066167999,0.022361507,0.01853367,0.239271925,0.04318045,0.011759289,0.63020009,0.307746928,0.658309066,0.360312327,0.363197,0.648079472,0.163461539,0.632881276,0.667011188,0.596724367,0.457225882,0.47992931,0.52007069,0.018212224,0.023522098,0.672712524,0.327287476,0.243955492,0.199711942,0.664007781,0.335992219,0.202065829,0.166911096,0.493135448,0.107936865,0.090004476,0.058931463,0.080023875,0.395776936,0.696932515,0.819277108,0.373733707,0.265608331,0.042379731,0.020548543,0.005085141,0.257553686,0.526627219,-1.662141288,2.137172077,0.312606376,-1.984190384,-0.145010495,0.439293023,-1.68690439,-2.173200767,-0.858710658,2.840053489,-0.307726642,-2.296671671,-2.126319678,-0.679599662,-1.915113565,0.921679509,1.03428427,-0.920733793,0.48286571,-2.296671671,-2.126319678,-0.679599662,-1.915113565,1.730788562,-0.293236453,-0.485764279,-0.881028796,-0.492735867,2.528110702,-1.62610755,-0.585533483,0.768660321,-0.608091352,-1.824993488,-0.957719275,1.308024775,-0.603036653,-0.197053313,-0.230174907,0.429806246,0.510798116,0.873407593,-0.97721146,1.223525073,-0.232188702,0.452204351,-1.601789168,-0.298186978,-1.008697406,0
0.460276499,0.152803406,0.364858494,0.271574514,0.152663046,0.303793291,0.171652834,0.365442279,0.178571429,0.238147737,0.164623955,0.336967134,0.509522149,0.275816299,0.571819425,0.086551168,0.028657229,0.014234146,0.051807381,0.592849865,0.391351496,0.463299314,0.152663046,0.322112548,0.295215028,0.064120058,0.155124283,0.560876449,0.253471531,0.533505804,0.500704721,0.69933886,0.177083333,0.827611032,0.805730763,0.855140114,0.489079563,0.610568912,0.389431088,0.14975215,0.161931897,0.974285443,0.025714557,0.387279963,0.192208928,0.93109146,0.06890854,0.340810352,0.183101236,0.620693879,0.140763156,0.156584173,0,0.107027304,0.405522469,0.575460123,0.583668005,0.371980903,0.325958603,0.191672127,0.215710208,0.03596874,0.199599016,0.287968442,-1.674829739,1.689898571,1.973459141,-0.028557333,1.791216911,3.161771863,-1.522631238,0.049840347,-0.913718239,-1.187847979,-0.983838158,0.120699308,-0.745201987,-1.725878921,-0.83243685,0.554201806,0.635813679,0.078575548,0.60119367,0.120699308,-0.745201987,-1.725878921,-0.83243685,-0.791068807,-0.559047221,-0.502324069,-0.322955576,-0.580987067,-0.243478038,-1.072927819,0.707311626,0.598747129,-0.542414019,-0.067627491,-0.05327927,-0.565845909,-0.165903284,0.220094266,-0.663994119,0.027661109,0.696010305,1.546983065,-0.188260278,1.075485748,0.617599716,-0.168161108,1.404684235,0.132206914,0.813897253,0
0.397175369,0.05037445,0.423710632,0.087752287,0.05033969,0.094064667,0.053532428,0.399550225,0.052197802,0.067792552,0.045682451,0.238215058,0.529486512,0.113352801,0.746606335,0.282720934,0.038902907,0.006743947,0.128363141,0.801685477,0.195837938,0.508145019,0.05033969,0.104092105,0.286945577,0.010959535,0.160449619,0.298111757,0.092888892,0.744805196,0.732997178,0.885004044,0.074561403,0.746399496,0.750922419,0.744966093,0.402742206,0.390115013,0.609884987,0.041216809,0.066503996,0.87584326,0.12415674,0.129269842,0.060114751,0.816302996,0.183697004,0.111301908,0.060312243,0.906380113,0.336126739,0.044835842,0.042621172,0.044822083,0.245262588,0.077791411,0.127443106,0.575532575,0.458053856,0.002835542,0.001475439,3.36E-05,0.114233354,0.059566075,0.419166946,-0.515519579,-0.882437683,-0.481514749,-0.80767656,-0.368121263,0.405463576,0.337220994,-0.121078654,-0.621661568,-0.165311663,1.542608809,0.886118632,-0.308623995,0.964670125,0.950363217,-0.380457458,-0.578613094,0.473582142,1.542608809,0.886118632,-0.308623995,0.964670125,-0.346491845,-0.270655622,-0.525029902,-1.007893536,-0.507444401,-1.354671267,2.130700952,1.385476332,0.915923576,2.813971255,0.709868847,-0.139558125,-0.748802167,-0.315593051,1.968352343,1.307777378,-1.852401558,0.40245903,-1.030872942,-0.03570599,-0.411849371,-0.505068137,-1.552613129,0.12391532,-0.882922934,-0.640926695,1
0.393705113,0.068439077,0.427141774,0.131093375,0.068671077,0.139285383,0.072552371,0.41041979,0.085164835,0.10828313,0.078830084,0.276072706,0.306967213,0.113883727,0.402171946,0.22626071,0.027336801,0.00905441,0.145356026,0.82136001,0.173723251,0.456433052,0.068671077,0.15889452,0.264348796,0.018891299,0.176293364,0.375001958,0.146485443,0.806704546,0.782512714,0.913422184,0.386363637,0.525279969,0.592161427,0.451850567,0.430600718,0.369308532,0.630691468,0.054724593,0.090906808,0.636779126,0.363220874,0.159797704,0.135107479,0.608113263,0.391886737,0.138572518,0.12341815,0.591986243,0.28034086,0.150866773,0.044652113,0.090187772,0.410936654,0.417177914,0.544846051,0.190064061,0.155424213,0.169911318,0.157042125,0.008263593,0.422019642,0.546351085,-0.568029555,0.008397123,-0.444619631,-0.8393667,-0.90964932,-0.102234311,-0.646684401,1.856280341,2.673889238,0.535817192,2.626885043,0.684616859,1.533409086,1.512354927,1.213695548,-0.032198836,0.761052713,0.418375186,-2.755489394,0.684616859,1.533409086,1.512354927,1.213695548,-0.918258135,-0.648491984,-0.625238293,-1.224557676,-0.713363868,0.059157482,0.183169394,-0.086989652,0.610199729,-0.239564735,1.145998948,0.860954923,-0.204889359,0.355879637,-0.056056389,1.134870526,0.16351243,-0.287150543,0.76100356,0.905733847,0.30004642,1.938708727,0.859757149,0.365780586,0.089815602,0.099825484,1
0.435731291,0.025028948,0.385334283,0.064672919,0.025190053,0.073528235,0.02816794,0.348575712,0.100274725,0.138295018,0.078272981,0.202857776,0.419786504,0.041943191,0.652589241,0.073668502,0.013346034,0.000985963,0.094695191,0.743649444,0.255755745,0.354556268,0.025190053,0.078276661,0.213740964,0.005565503,0.22052145,0.211643931,0.101711343,0.760253701,0.775881939,0.836675332,0.277173914,0.589687452,0.636744232,0.537642617,0.323180692,0.455812891,0.544187109,0.02317599,0.032410338,0.710938424,0.289061576,0.087947264,0.057190183,0.689071665,0.310928335,0.074490437,0.050837602,0.306215091,0.374494769,0.113429958,0.052034198,0.086809674,0.432593395,0.349693252,0.381526104,0.287092883,0.225450945,0.074979061,0.076263629,0.007054736,0.464310888,0.400394477,0.533477096,-0.545252328,-0.569084352,0.129933664,-0.638558658,-0.731542503,0.590910663,0.038203071,0.152079114,-0.404152751,-0.271763263,-0.637208512,-0.793663175,-0.998062069,-0.919581472,-1.99199598,2.020722245,2.436942821,-0.993902932,-0.637208512,-0.793663175,-0.998062069,-0.919581472,1.421733114,3.070401227,2.882911296,0.483230941,2.89758107,0.367510813,0.360727659,-1.466122846,-0.462125056,-0.674513339,-0.598915469,-0.814275203,-1.569132236,-0.879658252,-1.265161822,1.965018404,1.317542673,-3.032427158,-0.532302607,-0.706718171,-0.232529741,-1.33919808,-0.271760093,-1.04163922,-0.012048051,-0.858421115,1
0.447178858,0.022198439,0.374306031,0.075906148,0.022169162,0.086962525,0.025536923,0.347076462,0.071428571,0.100072042,0.064623955,0.206728169,0.493200693,0.068224051,0.705681247,0.055848271,0.014591245,0.000985963,0.066123187,0.662699662,0.336710138,0.366922422,0.022169162,0.096285746,0.167534853,0.006001857,0.276487598,0.22063892,0.148762424,0.576672007,0.56037325,0.761023886,0,0.6207016,0.656001223,0.584999598,0.161771159,0.408554792,0.591445208,0.018962147,0.030653372,0.716392523,0.283607477,0.106635134,0.071781053,0.694889075,0.305110925,0.088926058,0.062252855,0.804985762,0.317662325,0.33275178,0.265379768,0.271526836,0.148890092,0.26993865,0.258366801,0.828268159,0.757611801,0.201297543,0.19030979,0.042973558,0.059254734,0.104536489,0.214294628,-0.412889041,-0.65629201,-0.208348303,-0.590316645,0.248438406,0.2017304,0.607059329,1.194904283,0.309256813,1.221073218,0.138045975,0.377492994,0.110208164,0.131498371,-0.28382442,-0.938889799,-0.097485848,0.468562152,0.138045975,0.377492994,0.110208164,0.131498371,-0.207787202,-0.169436403,-0.865918048,-1.113272027,-0.758744334,-0.40921142,1.241175668,0.802605052,-1.142332191,0.19344453,0.30036364,-0.487124045,-0.816039508,-0.692166057,0.351557458,0.842809717,-0.137274354,0.553122076,-0.254070835,-0.474201572,-0.214490352,-0.520786773,-1.223960482,1.255621162,-1.063193113,0.060985995,1
0.536528203,0.017573026,0.294777567,0.011754444,0.017630716,0.021804484,0.023782681,0.267616192,0,0.010986311,0.007799443,0.197197639,0.390544727,0.010883993,0.712760181,0.127984379,0.053829722,0.005420836,0.039788269,0.533922993,0.463736692,0.556340031,0.017630716,0.009475641,0.385974005,0.001528514,0.109010889,0.089778251,0.006951877,0.692118828,0.695179927,0.907636149,0.049418605,0.611808905,0.650306731,0.571691131,0.551525394,0.475693673,0.524306327,0.017300532,0.022620609,0.551242233,0.448757767,0.010952261,0.006857087,0.546053241,0.453946759,0.012412311,0.009502367,0.557631186,0.539031565,0.286725725,0.19127946,0.214600048,0.306984299,0.381595092,0.416331995,0.405128025,0.33146436,0.124568518,0.128073189,0.021898036,0.24032392,0.317554241,0.688049172,-0.736253857,-0.527788443,-0.845817379,-0.980770503,-0.623605494,0.951861158,-0.440099823,-0.040440343,1.197776748,0.319587484,0.919579248,0.353367537,1.330762939,0.60749687,1.314848515,0.460414686,-1.46479248,0.356315026,0.919579248,0.353367537,1.330762939,0.60749687,-0.780050516,1.99483349,1.396146525,-0.977883548,0.112406568,-0.631194158,0.635800491,1.625685518,-1.408710231,0.403331467,0.242189788,-0.364430821,-0.552451276,-0.36417714,1.524634343,0.199846407,-0.834869297,-1.009294663,-0.393180832,-0.220217184,0.421127759,0.063738124,1.197079869,-1.296550935,0.145876438,-1.257888196,0
0.48660972,0.013240777,0.337934495,0.010650918,0.013340561,0.017732529,0.016967801,0.310344828,0.013736264,0.026433365,0.017827298,0.076037782,0.399920677,0,0.583063995,0.226824545,0.059255123,0.008532924,0.066257506,0.661444869,0.335451714,0.57067662,0.013340561,0.010190803,0.339696994,0.001231098,0.130051118,0.075786919,0.012902117,0.754545456,0.757738385,0.970765932,0.283333333,0.554558041,0.606935057,0.499455251,0.540171607,0.456600629,0.543399371,0.013058451,0.018214867,0.656758465,0.343241535,0.016699372,0.002588011,0.631068245,0.368931755,0.015574924,0.005226494,0.460953997,0.509264551,0.32370459,0.252792054,0.263254171,0.341635084,0.336196319,0.459170013,0.309953506,0.266492747,0.217815539,0.13783626,0.107709549,0.35623326,0.463510848,0.378641337,-0.48410498,0.973672159,1.405209191,0.84127805,-0.639603422,0.221870897,-0.18231116,-0.356225167,-0.681746542,-0.818475998,0.66542046,-0.335816959,-0.766599327,-0.503893617,1.583047127,0.444422357,-2.087345759,0.666210001,0.66542046,-0.335816959,-0.766599327,-0.503893617,-0.631046106,-1.283002655,-0.78752889,-0.474089025,-1.05100141,-0.115862269,-0.05773321,1.84139325,0.78431052,0.208349577,-0.255078476,-0.303912737,-0.142208072,-0.295609673,0.738209474,1.929843835,-0.957199281,0.2431944,-0.223013527,-0.251291004,0.746218098,0.170026925,1.105633154,-1.502278024,0.414075121,-1.345799918,0
0.487316294,0.029238911,0.337767687,0.149895341,0.029275761,0.174535373,0.035199787,0.31934033,0.167582418,0.235788342,0.148189415,0.212243078,0.461003656,0.092115742,0.689722043,0.050986115,0.003094054,0.000448551,0.226689259,0.8900633,0.109213854,0.174036389,0.029275761,0.190994511,0.099680018,0.012230668,0.409902932,0.313167998,0.366850755,0.463884893,0.460054629,0.70420439,0,0.741159146,0.747988749,0.735970398,0.599468212,0.6411005,0.3588995,0.033325134,0.028258966,0.60833626,0.39166374,0.186592502,0.167770614,0.606395227,0.393604773,0.156455567,0.140751233,0.578629551,0.209871534,0.419748098,0.286386016,0.404832044,0.569030861,0.565644172,0.617135207,0.422804408,0.337810082,0.206007333,0.187736673,0.024436529,0.387560108,0.418145957,-1.412194498,1.612506716,1.109499503,-0.250257684,0.49853707,-0.891492361,-1.292161841,-0.58832263,-0.342115188,0.103735625,-0.439951601,-0.363743451,-0.285570532,-0.054805342,-0.445370404,-1.263777515,0.884557875,1.489039115,0.290996962,-0.363743451,-0.285570532,-0.054805342,-0.445370404,-1.003583902,-1.013591465,-1.547767464,-0.959436977,-1.287055203,0.194361479,-1.220184939,-1.471505346,-0.400675887,-1.032802841,-1.161778762,-0.854700735,-0.666691552,-0.86531869,1.314268677,0.916112524,-1.704340948,0.022259059,-0.305021373,-0.875552544,-0.354955569,-0.840012547,1.422319733,-0.852529223,1.105511568,-0.317946689,1
0.416247295,0.028977775,0.404448999,0.08069896,0.028947605,0.088752143,0.03158957,0.383058471,0.063186813,0.084049537,0.063509749,0.23333639,0.491985016,0.07061322,0.801357466,0.055074976,0.010255318,0.000706639,0.091367249,0.736177769,0.263370496,0.318701924,0.028947605,0.101362718,0.192119545,0.007329921,0.244372399,0.245288211,0.136875805,0.660806254,0.630217808,0.904502046,0.083881579,0.639905139,0.669371638,0.611352441,0.374063056,0.458336503,0.541663497,0.026479966,0.036778727,0.612312753,0.387687247,0.101631549,0.086634919,0.600440949,0.399559051,0.086158321,0.075184491,0.855280198,0.340985973,0.43122199,0.203066518,0.284822445,0.269085003,0.406134969,0.443105756,0.42143808,0.2413643,0.18683694,0.162455271,0.041241248,0.107028179,0.179684418,-1.018305691,1.043189441,0.626438171,0.902302479,1.248400162,0.069951723,-1.006699424,-0.992328623,-0.571266516,1.690921541,-0.046485452,-1.442589534,-0.938183414,0.561982306,-0.688296851,-0.434557134,-0.5621942,0.564843084,0.510172834,-1.442589534,-0.938183414,0.561982306,-0.688296851,-0.031429325,-0.270786327,0.961387307,1.531279276,1.152167321,0.273333634,-1.230831747,-1.583076487,-0.437555069,-1.200717365,-1.219251762,-0.902054453,-0.455033258,-0.707852463,-0.161897211,0.189943256,-0.264836098,0.81531144,-0.189928771,-1.031374339,-0.552124104,-1.071859863,-0.336790964,0.407869582,-0.901955797,-0.05664881,1
0.633013056,0.026366443,0.219218077,0.1724326,0.026267307,0.226698089,0.038453835,0.187406297,0.188186813,0.308028911,0.160167131,0.290148303,0.454662725,0.105388904,0.85800474,0.02123856,0.002565111,0.000242734,0.118750756,0.78896842,0.210619979,0.155138196,0.026267307,0.220085903,0.073104724,0.012993882,0.493699319,0.321577057,0.48930383,0.334254844,0.325808536,0.570259208,0,0.511069,0.582833202,0.427435109,0.629899369,0.455537883,0.544462117,0.024129462,0.033768633,0.525994786,0.474005214,0.200001115,0.207226235,0.520514589,0.479485411,0.166293631,0.173982429,0.816216487,0.241790371,0.371899643,0.269885979,0.307805391,0.40877098,0.425766871,0.464524766,0.519399909,0.350204167,0.150270796,0.128246112,0.038492436,0.171404853,0.197238659,1.019306851,-1.110692441,-0.212945859,2.324196741,1.156099704,-0.209227799,0.986273018,1.908698242,1.954011922,-0.00877911,2.197267715,1.867825744,2.442268383,0.392036962,2.299632532,0.007285458,1.886660004,0.016706145,0.533568486,1.867825744,2.442268383,0.392036962,2.299632532,0.671951509,-0.664639829,-0.045306133,1.070091357,0.095545583,-0.655076239,0.810947012,-0.127862288,-0.456703353,0.023972355,1.555913608,0.933195141,0.573844394,0.876065336,-1.164950144,-1.240716759,1.232438763,-0.078989005,0.253122194,0.98097094,-0.450130167,1.190376486,-2.205254923,1.223141764,-0.479124458,0.494060921,0
0.667948012,0.063417355,0.194381639,0.188825592,0.063315877,0.253811409,0.087539545,0.197151424,0.200549451,0.323251774,0.178272981,0.23814208,0.357505432,0.209715954,0.673409635,0.117981519,0.02725593,0.015154116,0.075113526,0.682890032,0.302956207,0.456002338,0.063315877,0.236716215,0.162851343,0.024392397,0.283333127,0.412680942,0.314403467,0.553450165,0.532527936,0.678100435,0.250000001,0.579923903,0.646806435,0.503564145,0.524114107,0.232551519,0.767448481,0.04096829,0.093111239,0.622354541,0.377645459,0.232631151,0.206505067,0.596054281,0.403945719,0.195271103,0.18060866,0.779369866,0.20308533,0.279706605,0.28611305,0.278587461,0.37953438,0.392638037,0.467202142,0.618806141,0.468829322,0.05082576,0.027649661,0.005692753,0.160440455,0.201183432,2.006523827,-1.575092435,-1.518656469,-0.748130311,-1.581661072,0.659365568,2.05951763,0.247240563,0.146105859,-0.337579638,0.095461197,0.144999836,0.553184336,0.897303851,0.590391471,-0.16780356,0.678376724,0.040933462,0.851069603,0.144999836,0.553184336,0.897303851,0.590391471,-0.080079774,0.708567757,0.589853331,0.964638192,0.899252544,0.392516115,1.144350069,-0.10764509,0.187048386,1.580127203,1.017001359,0.454720514,0.558884786,0.582297836,1.008605955,0.146704759,-1.014088002,0.587188743,0.61623771,0.544052404,0.489043995,1.43490733,0.042552066,-0.196043443,-0.688104139,-0.201082173,0
0.700135929,0.019466415,0.171530994,0.144593356,0.019392964,0.203047723,0.032435301,0.14167916,0.115384615,0.208782753,0.101392758,0.152446206,0.427184984,0.088930183,0.78674646,0.037443926,0.002149212,0.000449368,0.21714011,0.884237937,0.114666017,0.138445899,0.019392964,0.184331362,0.072909956,0.009532893,0.494418688,0.279353449,0.424978393,0.298493815,0.28599387,0.522001181,0.159375,0.467189755,0.554807036,0.362294882,0.598650452,0.480611846,0.519388154,0.019059129,0.024610945,0.626962524,0.373037476,0.182998412,0.159054721,0.618849586,0.381150414,0.151689794,0.133192957,0.715595218,0.243572462,0.30220275,0.314037565,0.31555417,0.491066594,0.590184049,0.643908969,0.413275245,0.327687582,0.078239549,0.066625925,0.004654058,0.317074699,0.414201183,-0.596813053,0.556814328,-0.057883084,-0.365799066,-0.231324117,0.464880957,-0.649031976,-1.241229339,-1.244125852,1.256687318,-0.930539142,-1.119610445,-1.234463861,-2.020765804,-1.345818835,-0.981206544,1.00731708,1.02301581,0.654010649,-1.119610445,-1.234463861,-2.020765804,-1.345818835,0.786506345,-0.108369867,0.194187708,0.894447638,0.427144958,2.510759384,-0.968264663,-0.482431126,0.792813111,-1.238269907,-1.52857379,-1.173265485,-1.576396382,-1.146250351,-0.393774036,-1.764588764,0.223138141,0.400202657,-0.045069193,-1.165303309,-0.162283434,-1.156963182,0.176973817,-1.139694738,-1.231270015,-1.303367396,0
0.436675883,0.022808342,0.384467797,0.036199962,0.022807931,0.042686257,0.025766651,0.355322339,0.038461538,0.055119962,0.031197772,0.231208324,0.448334072,0.052296257,0.784668619,0.192713207,0.042120568,0.00241525,0.079776819,0.706495118,0.293164412,0.519892157,0.022807931,0.042896596,0.287450405,0.003530652,0.160117713,0.161464617,0.045835375,0.675601967,0.659820798,0.913422184,0.098076923,0.69083342,0.706613396,0.677970916,0.437987519,0.522446481,0.477553519,0.023339285,0.026775347,0.530805541,0.469194459,0.040232276,0.039300386,0.534543042,0.465456958,0.036626424,0.035611196,0.822070304,0.434478812,0.372975931,0.281239885,0.323488287,0.514889009,0.699386503,0.763052209,0.535604561,0.407674339,0.247219597,0.24715837,0.035354379,0.252854659,0.376725838,-1.497196764,1.642181833,2.092004204,-0.440719056,1.29215433,2.80214682,-1.495539965,1.405946571,0.02952659,-1.32567007,-0.547034161,0.490887992,-0.169471853,0.118725931,-0.107813412,0.264160491,-0.617739293,-0.140757421,-1.537860845,0.490887992,-0.169471853,0.118725931,-0.107813412,-0.635250665,-0.856434938,-0.476311512,-0.500599069,-0.708161378,-0.805543414,-1.582143197,0.330518624,1.793647851,1.225777641,-0.560512749,0.005888341,-0.338844314,-0.314063055,-0.404694631,0.050280542,0.229888566,0.754245916,0.521109583,-0.218615285,0.861374856,0.001766605,0.484697817,1.600213463,0.496732663,2.08101784,0
0.393134556,0.024117817,0.427676752,0.025975928,0.024115044,0.02862384,0.025338862,0.392053973,0.024725275,0.033362412,0.025626741,0.165528375,0.385128806,0.02787364,0.746606335,0.318841054,0.056485766,0.002398915,0.099446038,0.754325358,0.245725401,0.563526325,0.024115044,0.028324257,0.351261968,0.002950854,0.124373012,0.143762978,0.0232619,0.587792208,0.566931414,0.79327338,0.033203125,0.656408224,0.681490194,0.632814483,0.150215036,0.387939022,0.612060978,0.019811358,0.033875634,0.678530464,0.321469536,0.03569941,0.017130498,0.635818222,0.364181778,0.032161879,0.019974689,0.767762951,0.459922101,0.359345623,0.280583088,0.285113999,0.14239307,0.195092025,0.170013387,0.5012863,0.437620323,0.216586014,0.090396655,0.167937382,0.066929812,0.079289941,-0.370105938,0.184974615,0.149308623,0.019120117,0.479993637,-1.005673649,-0.270507963,0.446861215,0.554329157,0.125963925,0.703092465,0.377064681,0.808298288,1.222549016,1.106846418,1.558584487,-1.754246525,-0.732080816,0.787957391,0.377064681,0.808298288,1.222549016,1.106846418,2.776056627,0.677128027,1.083162074,1.294136071,2.06828085,-1.402406026,1.275600001,-0.23646261,-1.212066816,-0.951317368,1.532333049,1.110338536,1.055761091,0.995661267,0.176383407,-0.104426536,0.154998049,0.031090492,2.303085784,1.167928977,1.51318286,2.020371756,-0.585357303,0.423839204,-0.01250327,0.569984731,1
0.468755189,0.01840161,0.354596339,0.06160488,0.0184466,0.073336026,0.022141968,0.317841079,0.057692308,0.085863675,0.046796657,0.112967306,0.279120395,0.06318025,0.542986425,0.058645521,0.004982245,0.000475503,0.180956836,0.859564,0.139949089,0.227135497,0.0184466,0.072761476,0.18703411,0.004384058,0.250536402,0.184431077,0.110218939,0.558181818,0.573344671,0.79327338,0.255,0.882884619,0.861708072,0.905597805,0.261942108,0.633310632,0.366689368,0.022685846,0.017372201,0.736886472,0.263113528,0.08442393,0.050248688,0.729216393,0.270783607,0.071556147,0.042843841,0.343940033,0.200632092,0.381175019,0.236178846,0.312700661,0.410936654,0.499386503,0.635876841,0.300888894,0.238924109,0.201389838,0.217799403,0.030583118,0.422019642,0.637080868,0.70219892,-0.778314387,-0.916186001,-0.398586179,-0.832214686,-0.884591294,0.554189099,0.40576019,0.64672194,-0.475139299,-0.009131071,0.142141615,-0.097338176,-0.135829722,-0.252102642,-1.551321112,-0.811623471,1.132222279,-1.913528866,0.142141615,-0.097338176,-0.135829722,-0.252102642,-0.86912924,-0.649886359,-1.56380315,-0.959436977,-1.213990934,1.21727892,0.052719652,-0.454008118,1.478034311,1.511932135,-0.457712671,-0.799285063,-0.088905719,-0.563256944,-1.673045791,0.217855517,1.532683659,0.599048505,0.077736985,-0.747035314,0.376500255,-0.410399002,0.302510636,-0.050431877,2.471607621,1.361095649,1
0.373231508,0.017065475,0.448347437,0.060739086,0.017121006,0.063300904,0.017092531,0.422038981,0.050824176,0.06339989,0.056824513,0.185325155,0.485785686,0.031324662,0.560609669,0.030243685,0.012642525,0.000542476,0.041987505,0.549335154,0.45086062,0.347101455,0.017121006,0.075399076,0.174909651,0.004319607,0.266211773,0.182806089,0.120315892,0.632716187,0.651963216,0.808707515,0,0.882696893,0.85358254,0.917988,0.026728106,0.520350892,0.479649108,0.018266797,0.020475152,0.833807443,0.166192557,0.094664407,0.04324323,0.811028128,0.188971872,0.079059261,0.037664381,0.495141921,0.460727799,0.307934475,0.265349923,0.271385414,0.278830536,0.349693252,0.476572959,0.204785272,0.1182205,0.084416768,0.036360415,0.026118503,0.306110302,0.499013807,-0.114398791,0.057680208,-1.061170792,-1.393170551,-1.300175927,0.009410546,-0.261501033,-1.577274535,-1.971426686,-1.855427311,-1.744864653,-1.820022121,-1.473766742,-1.655568974,-1.3925699,-0.045435792,-0.677055439,0.255702428,-1.667473393,-1.820022121,-1.473766742,-1.655568974,-1.3925699,0.00384225,1.63561857,1.061898251,-0.769874911,0.264155435,-0.568956007,-0.101435136,-0.137211379,0.022189368,-0.723827426,0.535106766,2.380630807,2.44807981,2.494669934,-1.3152975,-1.383664498,1.539460802,-2.91737962,-2.361007725,2.290638231,-2.673464196,-0.881165857,-0.380403419,0.126843065,-0.257652619,-0.084411955,1
0.695870867,0.72506726,0.209856396,0.754506482,0.72403588,0.957396083,0.923565892,0.418290855,0.309065934,0.389171246,0.766295265,0.685564316,0.714930643,0.371383063,0.224233283,0.990299723,1,0.582224506,0.013192498,0.258263306,0.707363016,1,0.72403588,0.766324391,0.65361253,0.579062743,0.039161644,0.911955722,0.28043024,0.653059442,0.638852014,0.742155525,0.269366197,0.643747527,0.730324016,0.518484245,0.136188006,0.366437296,0.633562704,0.576409918,0.919661914,0.807835639,0.192164361,0.825905385,0.585126403,0.666520077,0.333479923,0.806764971,0.69757856,0.560954324,0.071265172,0.019139914,0.017613171,0.019326462,0.506226313,0.404907975,0.479250335,0.741822526,0.610299077,0.006910442,0.005818856,7.28E-05,0.201165359,0.19408284,1.741897694,-1.344774043,-1.318479706,-0.239346375,-1.196487638,-0.36856547,1.767609063,0.936115513,0.697313436,-0.432638994,1.251342904,0.995183429,0.634246439,-0.266842181,0.898447851,0.746793236,-0.743494327,-0.959192253,0.873679751,0.995183429,0.634246439,-0.266842181,0.898447851,-1.677044023,-0.937071506,-0.483682824,0.687071237,-0.513030302,-0.295658104,1.695789486,1.251521304,0.407395284,2.217745717,1.28762347,-0.360264489,-0.923940912,-0.755685784,1.769636313,-0.778260979,-1.63144208,0.109380792,-0.76384341,-0.010918722,-0.356493284,-0.481213389,0.359530919,0.592593972,-0.299199605,0.228641295,1
0.365592978,0.000937689,0.456305063,0,0.001003331,0,0,0.415292354,0,0,0,0,0.092956623,0.002123706,0.566655064,0.046070842,0.017322598,0.001141143,0.04596226,0.57208709,0.427220394,0.390987775,0.001003331,0,0.260196055,0,0.179431796,0,0.017427321,0.733475463,0.731494709,0.875078902,0.19921875,0.620426571,0.654873615,0.586199939,0.66122753,0.500994691,0.499005309,0.003333986,0.002359193,0.500764136,0.499235864,0,0,0.504179722,0.495820278,0,0,0.599964729,0.601111875,0.133574417,0.101503677,0.124794038,0.643746616,0.699386503,0.763052209,0.411600517,0.334315336,0.123426331,0.111914468,0.012786511,0.492505051,0.58382643,0.343262111,-0.160216429,-0.04151266,0.011243248,-0.031756983,-0.075055259,0.289903108,-0.882489683,-0.707803004,2.43124817,-0.272521425,-0.734901991,-0.843712373,1.446055503,-0.493401416,1.17598568,2.261735348,-1.446787084,0.96268279,-0.734901991,-0.843712373,1.446055503,-0.493401416,-1.097262035,-0.793367195,-0.65799466,-0.883989102,-0.773975071,0.694277417,-0.124879647,0.379751028,-1.358057286,-0.686714586,-1.070095328,-1.404039323,-0.563643555,-0.948106829,-1.379710607,0.632794067,1.739788399,0.51479688,0.260097944,-1.425746724,0.207519518,-0.509955429,0.191475379,-1.081798194,0.796571827,-0.589802439,0
0.418688809,0.001366491,0.40200539,0.021237143,0.001440303,0.025276501,0.001755297,0.370314843,0.021978022,0.031840381,0.030083565,0.002731984,0.045081967,0.009556676,0.439668175,0.036998205,0.008366106,0.00047877,0.075504273,0.694096356,0.305725882,0.291774022,0.001440303,0.027055425,0.171036751,0.000801049,0.27153386,0.053138903,0.068831867,0.636782432,0.65258825,0.769986357,0.202380952,0.817357207,0.795028838,0.851398622,0.461791767,0.563466801,0.436533199,0.004942006,0.001315341,0.665936967,0.334063033,0.033739227,0.016778687,0.658392159,0.341607841,0.027300593,0.013378994,0.40472459,0.263681125,0.224614959,0.140304798,0.185263712,0.711965349,0.672392638,0.733601071,0.274881813,0.23408358,0.195077178,0.219277782,0.033793748,0.722757389,0.73964497,-0.646656908,0.61875897,0.170581763,-1.2023176,-0.282810368,-0.570949767,-0.568119705,-0.985734496,-1.182307772,0.371308827,-1.178251205,-0.72145459,-0.951082098,-0.930170897,-1.425356865,-1.475284888,0.073843182,1.121505074,-1.009555684,-0.72145459,-0.951082098,-0.930170897,-1.425356865,-0.365844758,0.958777146,0.589012903,0.797479808,0.559742637,0.264286633,-0.323227579,0.949775841,0.443578025,0.47868159,-0.907604906,-0.928710651,-0.163359456,-0.749632654,-1.504071081,1.610713647,1.141594038,0.337827718,-0.800059912,-0.947099519,-0.568680575,-0.642748566,-0.019213176,-1.209691164,0.413105569,-1.118650167,0
0.591192223,0.730768522,0.286353721,0.721339153,0.730937025,0.854890185,0.870728088,0.472638681,0.035714286,0.039541276,0.659888579,0.56227652,0.615994991,0.286700292,0,0.694358937,0.86812292,0.491041311,0.009640071,0.201471247,0.762746244,0.978372818,0.730937025,0.709989262,0.713856186,0.545029837,0.02990586,0.902203723,0.235917004,0.600625,0.587597898,0.690888203,0.050595239,0.661194244,0.768926936,0.50227999,0.102446864,0.320697591,0.679302409,0.557092299,0.953578161,0.857560378,0.142439622,0.786044144,0.515328869,0.662419397,0.337580603,0.77090955,0.669816861,0.264780317,0.031395545,0.033622448,0.009023398,0.019614379,0.41959935,0.452760736,0.493975904,0.389536268,0.332203161,0.01890358,0.013084109,0.00066971,0.287314193,0.33530572,-0.774208457,0.775949955,1.208943656,1.382101594,1.549625289,-0.383753122,-0.781943572,-1.105247812,-1.300100666,-1.72522483,-1.60118537,-1.255840182,-1.390042947,-1.072561312,-1.747325239,-2.022961508,-0.813643247,2.276062511,-1.144758538,-1.255840182,-1.390042947,-1.072561312,-1.747325239,-0.196075156,0.404183825,-0.232834376,-1.218014329,-0.358396365,1.864805203,-1.138769462,-1.438780389,0.040724172,-1.135184571,-1.22757846,-0.773260002,0.131619161,-0.472620869,-0.340971313,0.391757043,0.353349413,0.555583216,-0.172123256,-0.949207587,-0.662389803,-0.469441032,0.037829806,-0.972984372,0.095563026,-0.842467033,1
0.662905014,0.723097611,0.233911362,0.76947194,0.722115075,0.95484805,0.901542899,0.449025487,0.196428571,0.239457499,0.744289694,0.634390867,0.731747773,0.467215291,0.192329658,0.431451154,0.561371687,0.495894271,0.009105731,0.185570484,0.757297764,0.911740419,0.722115075,0.79179784,0.630086765,0.595170313,0.043200544,0.91637382,0.301237046,0.710093056,0.69151723,0.850070996,0.232876712,0.664323596,0.72929111,0.573983704,0.208989316,0.409000838,0.590999162,0.596815965,0.893434422,0.722665385,0.277334615,0.813970147,0.651244443,0.632828497,0.367171503,0.805992357,0.729490057,0.551798495,0.025177208,0.023012271,0.000518037,0.011205083,0.238765566,0.406134969,0.443105756,0.416089881,0.287570048,0.007883844,0.004712743,0.000208819,0.095123976,0.179684418,0.394507918,-0.605116975,-0.350168771,0.329550915,-0.26063822,-0.113554191,0.450018476,0.638442505,0.617424229,-0.3596031,0.883064847,0.73722502,0.816025336,-0.631081967,0.813226997,0.721240702,-1.433823043,0.22580444,0.906778328,0.73722502,0.816025336,-0.631081967,0.813226997,-0.038044941,0.316684068,0.996336989,2.209004321,1.564863229,-0.642910654,0.385246284,-0.097818878,-0.344678301,-0.349400963,1.403765544,0.028425458,-1.108215718,-0.520392525,0.506605758,0.159110554,-0.524593058,0.501391481,-0.584963533,0.364787542,-0.038697834,-0.3825921,1.217328184,0.645609797,0.863954803,1.865193542,1
0.82476792,0.730265849,0.132026258,0.722771459,0.72919065,0.988818948,1,0.296101949,0.620879121,0.874121436,0.771030641,0.758839139,0.848867925,0.33581099,0.455074337,0.919170345,0.845609014,1,0.015015327,0.270995468,0.660848784,0.974355031,0.72919065,0.709443595,0.712580267,0.543393302,0.030087367,0.901719617,0.236169538,0.611811323,0.590321823,0.803343879,0.307971014,0.637954064,0.718367996,0.523234166,0.238513219,0.383488985,0.616511015,0.589492475,0.916644653,0.711599596,0.288400404,0.725587807,0.587794757,0.602623349,0.397376651,0.741159872,0.698070594,0.70564888,0.163594697,0.017337602,0.016719883,0.017631191,0.345966432,0.354601227,0.386880857,0.694719337,0.413790144,0.006802063,0.006309322,5.93E-05,0.144777031,0.165088757,1.096688848,-0.746333863,-0.968679053,-0.945471506,-1.222586104,-0.603091077,1.136669807,-0.267412162,-0.172493505,0.334188185,-0.06170501,-0.307008113,0.025110757,0.671477084,0.358288207,-0.185073477,0.791344665,0.448466141,0.875933809,-0.307008113,0.025110757,0.671477084,0.358288207,1.899531493,-0.639846104,-0.568945632,-0.157843552,-0.416384091,-0.961898461,-0.053147305,0.19948913,0.025132448,0.152288484,-0.366961649,-0.444268896,0.207617928,-0.115861154,-0.102113997,-0.47631083,-0.619760496,0.399547102,1.479096111,-0.465600977,0.624767054,0.262052312,-0.979646527,-0.416212527,-0.545519435,-0.917500627,0
0.391009078,0.065246118,0.430084925,0.093251767,0.065192561,0.099113883,0.068935603,0.407796102,0.048076923,0.061568673,0.054874652,0.145474849,0.30165526,0.121316698,0.521628959,0.336160671,0.048376675,0.0105024,0.123025317,0.793135626,0.203404237,0.540436683,0.065192561,0.107733166,0.346892394,0.013694765,0.126482479,0.328931923,0.076349917,0.443795234,0.399449037,0.649386084,0,0.623315286,0.657960772,0.588438007,0.32677201,0.508522425,0.491477575,0.060611971,0.076333301,0.775801344,0.224198656,0.123968979,0.074728272,0.739092938,0.260907062,0.111719775,0.073717697,0.800037244,0.268598477,0.06686313,0.050175519,0.053803098,0.285327558,0.463803681,0.506024096,0.478121182,0.369158563,0.051631816,0.026766106,0.005600355,0.120811992,0.216962525,0.58246668,-0.588439755,-0.292025909,2.448062341,0.632252661,-0.578366992,0.571864627,0.190820219,-0.085738092,-0.714416441,-0.013555582,0.051785018,-0.378936443,0.071911764,0.08701401,0.799029243,0.425277395,-0.616456748,0.687146302,0.051785018,-0.378936443,0.071911764,0.08701401,0.809713205,-0.999344883,-0.792781589,0.104093622,-0.648334997,-0.217077247,0.665712356,0.249957205,-1.809040132,-0.521180783,-0.20297689,-0.989673223,-0.880930833,-0.837466315,-0.067104013,0.806165777,0.488426792,0.390150137,-1.122575385,-0.86936588,-0.370561724,-0.730206179,-0.710930442,-0.501605272,0.130931403,-0.470803584,0
0.659475095,0.618733101,0.229124978,0.643586002,0.618586198,0.804087049,0.775419456,0.36844078,0.195054945,0.25897259,0.597493036,0.569431615,0.671721312,0.277409079,0.14379085,0.639710717,0.828659312,0.667925936,0.009123261,0.18744299,0.760438375,0.971259119,0.618586198,0.648689056,0.653791756,0.427715582,0.039131865,0.863203135,0.235033928,0.592698864,0.58529808,0.758526603,0.045212767,0.723322999,0.809769985,0.593263205,0.073229132,0.331958835,0.668041165,0.476623232,0.802655341,0.858769711,0.141230289,0.719872745,0.46890581,0.685105917,0.314894083,0.693489688,0.582815016,0.384556345,0.06215193,0.038495366,0.027146284,0.031585807,0.301570114,0.321472393,0.350736278,0.310578113,0.237317752,0.025976975,0.016406084,0.001545125,0.198032674,0.226824458,-1.63502433,1.921739417,1.841042699,-0.468666731,1.496735477,1.597705704,-1.627561666,-1.318678938,-0.795884042,1.187579448,-1.144416472,-1.004870357,-0.200877845,2.288726894,0.00402641,-1.208857218,-1.050194545,0.720683863,-0.607606634,-1.004870357,-0.200877845,2.288726894,0.00402641,1.7516667,-0.637508253,-0.65325609,-0.367747464,-0.638670376,2.072993448,-1.632692496,-1.191721313,1.393544199,-0.678716413,-1.273479301,1.480430341,2.908264696,2.64808339,-1.297775648,-0.631698412,0.834368378,0.352319299,1.822596884,1.414155918,2.664664482,2.958338728,-0.522136206,-1.306727239,-0.338765223,-1.179234412,0
0.335804541,0.016167924,0.4891612,0.023167965,0.016179457,0.021899027,0.014779564,0.449775112,0.031593407,0.036632848,0.028969359,0.156266458,0.270491803,0.013273162,0.557466063,0.060204587,0.017804096,0.000624149,0.058426929,0.633278668,0.367098333,0.394864235,0.016179457,0.026996946,0.291983257,0.002155315,0.157177533,0.115810272,0.032731666,0.693895349,0.661737861,0.815394557,0.118055557,0.706852508,0.718300252,0.699030116,0.122509539,0.441495938,0.558504062,0.015021419,0.022119225,0.705881901,0.294118099,0.035888532,0.014359924,0.675045823,0.324954177,0.031123834,0.015144003,0.745688271,0.412054439,0.295553593,0.098643608,0.212585841,0.623172713,0.781595092,0.896921017,0.437170373,0.320026732,0.214682208,0.231742615,0.04887463,0.304543959,0.443786982,-1.624954361,1.636468425,1.563481812,-0.226702401,1.462553416,2.677441823,-1.596173529,-0.362968877,-0.708058672,0.12314938,-0.457311121,-0.686904987,-1.000751977,-0.279208648,-0.993513149,0.241027585,-0.229834614,-0.670632759,0.57236111,-0.686904987,-1.000751977,-0.279208648,-0.993513149,-0.490307381,0.382574154,0.255844562,-0.249116125,0.076511584,-0.465978581,-1.270987329,-0.663426137,1.985077043,0.104408953,0.026427059,0.434705881,-0.271679444,0.162093786,0.071416922,-0.017700332,-0.373164222,-0.281203897,0.684465341,-0.01068861,0.482728136,0.537607301,0.338422199,1.293071539,0.568395423,1.242990705,0
0.771923469,0.709226312,0.160127264,0.732526438,0.708356396,0.974733177,0.945799336,0.331334333,0.574175824,0.782443198,0.866295265,0.774189131,0.792943844,0.340058402,0.265060241,0.874967437,0.661949288,0.678676379,0.019430356,0.331181228,0.614044014,0.936922704,0.708356396,0.739103045,0.66246374,0.548521155,0.03770804,0.903231674,0.266226272,0.691353966,0.677576242,0.783386388,0.432203391,0.694712378,0.743831121,0.628211817,0.42483077,0.435607011,0.564392989,0.598566388,0.861600022,0.618619271,0.381380729,0.713387614,0.656821726,0.572970309,0.427029691,0.736564348,0.722027536,0.727433148,0.15674817,0,5.54E-05,0,0.485652409,0.349693252,0.424364123,0.674079973,0.559087258,0.001372646,0.000833024,3.52E-06,0.224660495,0.199211045,0.832352535,-1.037269528,-0.972161736,0.380111488,-0.763206911,-0.276733153,0.811221316,1.48157219,1.344223441,-0.159012731,1.42051657,1.76564045,1.523741649,-1.119675907,1.242106894,-0.000107283,0.816717016,0.013334558,0.466308588,1.76564045,1.523741649,-1.119675907,1.242106894,0.080723108,-0.453344848,-0.441621082,-0.284637047,-0.503365681,-0.888117326,1.462235595,1.993474514,-0.478656096,1.754315736,1.002539527,0.665076648,0.366468845,0.708874583,0.147691962,1.414344949,-0.078347896,0.353445664,1.077852056,0.750006202,0.453608703,0.596610827,-1.379579938,0.851253355,-2.485223296,-0.161907159,1
0.735411921,0.726320602,0.186438225,0.771267606,0.727255168,1,0.945051261,0.383808096,0.442307692,0.574904336,0.762674095,0.717415036,0.727968439,0.349084152,0.293112117,0.646205488,0.438033011,0.44214606,0.022347334,0.3646245,0.584029854,0.873853453,0.727255168,0.785622014,0.640130219,0.5949606,0.041444152,0.916317067,0.294033278,0.660033986,0.668827369,0.815154428,0.19921875,0.742092749,0.754995036,0.724469553,0.42690151,0.497066223,0.502933777,0.644604255,0.848351391,0.643880994,0.356119006,0.770311249,0.686077924,0.614887355,0.385112645,0.794879155,0.736927522,0.509788802,0.134136816,0.019246589,0.011971389,0.015027654,0.484569572,0.499386503,0.544846051,0.285796823,0.228473593,0.007104987,0.003592544,9.15E-05,0.494071394,0.546351085,0.042349227,-0.655895025,-0.915656247,-0.513583245,-1.011719737,-0.541634066,-0.029105374,1.8786127,2.130258028,-0.644958754,1.423119242,1.689230415,1.959119985,-0.526315762,1.563119012,0.186780693,-0.746750182,-0.961322943,-2.204852422,1.689230415,1.959119985,-0.526315762,1.563119012,-0.311211455,2.659838789,2.77259039,0.952824979,2.502331473,-1.011866488,0.732060668,-0.676239819,-0.499714396,-0.32651441,1.441997515,2.097675947,0.264847735,1.084631469,1.407635348,-1.784905616,-1.727954039,-3.226266315,-0.649798579,2.12137256,-1.343009715,-0.36691681,-0.927704401,1.725550187,-0.845036465,0.621192039,1
0.524673677,0.683212168,0.337417942,0.692104176,0.684939455,0.785306984,0.7804503,0.464767616,0.173076923,0.207217906,0.570473538,0.555844973,0.676229508,0.348553225,0.07836719,0.462778171,0.597026592,0.430462498,0.009220031,0.190903617,0.762695432,0.92114842,0.684939455,0.694351355,0.680903658,0.501678808,0.03478786,0.888863349,0.242135253,0.585485191,0.590321823,0.813212969,0.293103447,0.683566433,0.759374849,0.575544131,0.113817311,0.364292337,0.635707663,0.544200204,0.871350813,0.813854934,0.186145066,0.751914302,0.525936555,0.663059664,0.336940336,0.741624066,0.643384165,0.316276404,0.076524183,0.008866492,0.009026382,0.009637883,0.509474824,0.349693252,0.381526104,0.238553097,0.203829505,0.002465168,0.001478805,2.34E-05,0.542628009,0.400394477,-0.352680957,0.185128851,0.074634152,-0.954981727,-0.37196088,-0.76344443,-0.42438255,-0.20303116,0.163166618,-0.411619162,-0.249097379,-0.528084112,-0.192840484,0.347685429,-0.306632711,1.021427235,0.648822351,-0.1514648,-0.378117402,-0.528084112,-0.192840484,0.347685429,-0.306632711,-0.365844758,-0.261575194,-0.78266859,-1.589126347,-0.85129204,-0.41285584,-0.39734057,-0.955982488,0.19469504,-1.009728753,-0.113656581,0.193902308,0.032951552,-0.203917097,0.788760357,-1.326009868,0.397734771,-0.006972077,-1.230744261,0.028305797,-1.09345496,-0.771535664,2.394624203,0.380939918,1.645221973,1.32234784,1
0.351530041,0.18307213,0.472943364,0.273288197,0.182894204,0.277555996,0.187265494,0.434782609,0.26510989,0.328447613,0.219220056,0.753079062,0.843676815,0.213963366,0.746606335,0.477742513,0.05375054,0.004163064,0.158583559,0.839269181,0.160184481,0.556120533,0.182894204,0.316306739,0.364574461,0.073962618,0.118199958,0.583282396,0.203871791,0.434402598,0.396456256,0.596951183,0.240566038,0.621385796,0.653032526,0.592588206,0.892530529,0.691399528,0.308600472,0.188285159,0.178821086,0.360674909,0.639325091,0.245335495,0.33125983,0.430440542,0.569559458,0.24447379,0.29489777,0.86492302,0.42155421,0.226232129,0.208558791,0.220857172,0.298321603,0.371779141,0.40562249,0.42772319,0.343389413,0.100415339,0.060725282,0.01178704,0.118462478,0.164102564,1.724858063,-1.520687835,-0.986035026,0.330296547,-0.765467193,-0.162453614,1.753807104,0.808719593,1.279562432,1.130556862,2.130293463,0.906101013,1.105051606,-0.320761055,1.77750586,1.48715685,-0.500101972,-1.251621137,0.397078222,0.906101013,1.105051606,-0.320761055,1.77750586,-0.556586374,-0.417093501,-0.697892028,-0.710717198,-0.400518113,-0.375744046,1.631192122,1.361001477,-0.033109482,1.814260157,1.260066247,0.998947572,-0.221675642,1.708777738,1.114032781,0.649238621,-1.531160035,0.71016266,0.721883633,1.13825011,-0.492663748,0.459198279,1.547826556,0.317738576,0.249897258,0.800082019,1
0.239721755,0.146372701,0.605594177,0.206022368,0.146581082,0.185796678,0.13389169,0.533733133,0.145604396,0.161030528,0.148189415,0.797973778,0.852667952,0.181045925,0.401622718,0.102542124,0.025983299,0.000264786,0.068305245,0.671581407,0.329481927,0.449060008,0.146581082,0.232814674,0.389371466,0.047460334,0.107628536,0.514013057,0.140761274,0.767540107,0.759469252,0.929215217,0.064393939,0.542790084,0.594126993,0.491763561,0.538107282,0.499304507,0.500695493,0.132135028,0.171793329,0.534263368,0.465736632,0.213036905,0.217909846,0.537296473,0.462703527,0.201039746,0.204945364,0.399194242,0.536033041,0.146898398,0.167850638,0.161134604,0.194369247,0.063558282,0.069344043,0.341484457,0.244469718,0.001854357,0.000383159,1.95E-05,0.155741428,0.053057199,1.046504823,-0.749712543,-0.725481441,-0.953689915,-0.909416125,-1.007193109,0.957461092,-0.325610398,-0.820771772,-0.996739654,-0.798115191,-0.083995451,-0.815417851,-1.451446191,-1.235731323,-1.045427836,-0.629443503,0.55485846,0.453394071,-0.083995451,-0.815417851,-1.451446191,-1.235731323,-0.578378696,-0.724905674,0,0,-0.441626173,-0.765709116,0.882153446,0.313448643,-1.958031987,-0.474149853,0.233772933,-0.683890939,-1.607485527,-1.311514559,-0.8758747,-0.427829613,1.377993477,-2.025307499,-0.445775624,-0.412630142,-0.1214773,-0.947753512,-0.092714644,-0.280163223,-0.25897681,-0.337116932,0
0.42110969,0.083502486,0.400270814,0.164627842,0.083705194,0.179320242,0.09100677,0.380809595,0.134615385,0.177078927,0.109192201,0.568708066,0.766393443,0.104061587,0.545141133,0.141032966,0.015208115,0.000602914,0.159247208,0.84048834,0.159624558,0.372697526,0.083705194,0.196548854,0.26156744,0.02601494,0.178387014,0.422301593,0.179016993,0.457242084,0.475390801,0.567403788,0.157407407,0.805186008,0.799562973,0.812325444,0.303290313,0.610748233,0.389251767,0.08417903,0.088163672,0.602347033,0.397652967,0.190948547,0.173681091,0.607433377,0.392566623,0.170154079,0.153446965,0.504095061,0.440240825,0.181320336,0.177685196,0.176830161,0.118570655,0.16809816,0.091700134,0.067414634,0.052939265,0.062308374,0.062298752,0.004507224,0.135222342,0.092504931,-0.734710237,0.872964756,1.955669985,1.383212407,1.721427833,-1.010088036,-0.838348672,-0.930703704,-0.962577093,-0.000141079,-0.960121774,-0.741113404,-0.56128304,0.959291967,-0.451494709,-0.670407542,0.785146129,0.567171772,0.514417847,-0.741113404,-0.56128304,0.959291967,-0.451494709,-0.503195185,-0.591074295,0,0,-0.424497815,0.60523647,-1.157756066,-0.487541701,0.496798008,-1.155386917,-1.143567819,-0.861516578,1.270482249,-0.445819139,-0.53961003,0.189814467,1.530263396,0.460758456,0.413382146,-0.911092687,2.297612101,-0.029482955,0.126962906,-1.291431583,1.441122224,-1.471504553,0
0.563246469,0.051667971,0.272863977,0.179848824,0.051697053,0.222726345,0.065709414,0.26011994,0.236263736,0.351621331,0.181615599,0.483864516,0.633247249,0.10591983,0.703697925,0.026782176,0.004621263,0.000624149,0.093856701,0.741063914,0.257400582,0.218307314,0.051697053,0.227374132,0.138768523,0.020387689,0.323092582,0.386151128,0.341220825,0.521363637,0.508493619,0.672578444,0.155487806,0.726850852,0.729841292,0.730599211,0.465855907,0.49983408,0.50016592,0.048167573,0.061321349,0.611043668,0.388956332,0.221707682,0.200085201,0.603310844,0.396689156,0.18739726,0.170946536,0.640918224,0.315854843,0.33709462,0.18141447,0.307660933,0.618841364,0.452760736,0.493975904,0.38619462,0.292524003,0.086738097,0.079718538,0.004784977,0.4204533,0.33530572,-1.299220364,1.69843345,1.182960509,1.244758196,1.464508274,-0.988086596,-1.228770155,-1.438617279,-1.650841535,1.773302454,-1.196986572,-1.310666232,-1.71863899,0.274590877,-2.041130758,-0.382012724,2.065074883,0.730444326,0.512706295,-1.310666232,-1.71863899,0.274590877,-2.041130758,1.757767223,1.465296325,0.050956532,0.573634807,0.442197118,0.300227563,-0.983383619,-1.430810578,-0.589366063,-1.373317494,-1.572521316,-1.780224341,0.520962864,-1.918808379,-0.177095944,-0.001673261,0.226638773,-0.03124455,-1.911333706,-1.740753141,-1.672403476,-2.181408323,0.360380958,-1.47293973,1.424723906,-1.580473225,1
0.303211979,0.139600294,0.527004755,0.277989786,0.139450136,0.269653845,0.136053254,0.458770615,0.230769231,0.278984005,0.190529248,0.739920266,0.835770815,0.222192726,0.641271178,0.133720468,0.007350384,0.000239467,0.290531194,0.919384002,0.080764854,0.275066855,0.139450136,0.334178812,0.257375815,0.061196669,0.181606816,0.553575614,0.296462135,0.493251232,0.472719482,0.647473312,0.062500001,0.586559806,0.6357045,0.53054805,0.479580038,0.598273069,0.401726931,0.135942797,0.149569082,0.463353099,0.536646901,0.287238246,0.32859352,0.482493929,0.517506071,0.258852118,0.287842894,0.805424142,0.335308491,0.175113636,0.189779247,0.185878671,0.119653492,0.134969325,0.147255689,0.828420407,0.649247097,0.027009344,0.013825951,0.001858549,0.0476638,0.059960552,0.811304123,-0.772968911,-0.777559309,-0.525812523,-0.539371816,0.527696816,0.783481412,0.12302002,0.139268366,-0.670071931,-0.257348389,0.055168565,0.157861398,-0.328481331,0.225453779,0.962536514,-0.474256072,-0.610694691,0.536455821,0.055168565,0.157861398,-0.328481331,0.225453779,-0.690064346,-0.510775467,0,0,-0.4142208,-0.224241264,-0.286507253,-0.870322711,-0.463398336,-0.89500358,0.097332828,-0.030322773,-0.890187317,-0.410537741,0.310118961,1.017965606,-0.07549839,1.054436479,0.593935032,-0.043972233,-0.107998309,-0.466431515,-0.595562765,0.449961029,-0.147875812,0.73209873,1
0.385700232,0.145923682,0.435446972,0.228516948,0.14576734,0.239979907,0.15392533,0.41041979,0.20467033,0.259777717,0.188022284,0.645636854,0.683407608,0.25696841,0.490080056,0.535776415,0.021711809,0.001034967,0.432285466,0.954871419,0.045109763,0.423149296,0.14576734,0.266050631,0.341088334,0.052585565,0.129351631,0.529928277,0.18391064,0.399470434,0.371972618,0.530261689,0.115909092,0.588421783,0.624383922,0.555482567,0.759944418,0.649064312,0.350935688,0.147070264,0.148579566,0.409566602,0.590433398,0.216497875,0.271207626,0.457617938,0.542382062,0.208609811,0.241750294,0.737595357,0.331452131,0.201664002,0.227284223,0.217049587,0.377368706,0.284662577,0.310575636,0.750586545,0.60889658,0.042568655,0.036184881,0.002723397,0.158874113,0.132149901,-0.278750399,-0.070985051,-0.206227221,0.965770065,0.335264356,0.175094793,-0.294837338,0.456126168,0.614895597,0.175025836,0.830888937,0.157968842,0.294438987,0.112073333,0.54470445,0.668528192,-1.28809073,-0.722989655,0.480373479,0.157968842,0.294438987,0.112073333,0.54470445,-0.683856068,-0.611149002,0,0,-0.427067068,-0.738205644,-0.300828017,0.147719942,0.777314638,0.368137071,0.719664256,0.990163746,-0.399295555,1.129644993,1.872880892,0.354661823,-1.302448964,0.809299834,0.397932252,0.950602219,-0.546353236,0.859684372,0.295446424,0.66272489,-0.491562562,0.349857246,0
0.38316235,0.101658302,0.438434834,0.227232682,0.101571571,0.237984847,0.106777091,0.416791604,0.203296703,0.25632184,0.194986072,0.59857554,0.681507397,0.196442793,0.628959276,0.208784691,0.015716293,0.000726241,0.228294726,0.891588494,0.108415366,0.377296716,0.101571571,0.279308335,0.22219791,0.040413015,0.21211091,0.489204803,0.284554964,0.382172949,0.362170822,0.640952498,0,0.696900376,0.706943962,0.692637585,0.734372211,0.66258527,0.33741473,0.105006542,0.101152183,0.444845063,0.555154937,0.235619632,0.278234862,0.46769907,0.53230093,0.210451711,0.239951266,0.82145906,0.374653067,0.297316929,0.245389987,0.25730497,0.442338928,0.499386503,0.506024096,0.544665269,0.387570355,0.160367397,0.170578293,0.023169062,0.187068277,0.216962525,0.893693603,-0.539040214,-0.674960218,-1.127685208,-0.812628192,1.918998397,1.005748135,-0.758900823,-0.476502404,0.732423074,-0.04171204,-0.884899624,-0.738524363,1.540056441,-0.108007789,0.640071741,0.215669024,-0.401780041,0.483596763,-0.884899624,-0.738524363,1.540056441,-0.108007789,-0.685461657,-0.484009191,0,0,-0.410795128,1.799496334,-0.558565574,-0.767036383,0.308618006,0.108856619,-1.041878123,-0.842776502,1.721850662,-0.10820726,-0.266778457,-0.040315367,0.603907097,0.709573305,-0.721116345,-0.927901824,-0.63897382,0.122833449,0.322947908,-0.481372126,-0.006543659,0.06711763,0
0.381002867,0.10392189,0.440187499,0.198992378,0.103989798,0.208164621,0.108988367,0.425787106,0.159340659,0.198878628,0.153203343,0.71915861,0.858961749,0.149721264,0.568384178,0.29537348,0.021691628,0.001173812,0.238066804,0.896673186,0.103232708,0.42301583,0.103989798,0.240327206,0.266519528,0.036412329,0.174682487,0.473217435,0.211408555,0.394545454,0.391835827,0.672578444,0.051829269,0.722429218,0.725996251,0.7257941,0.60201987,0.593198399,0.406801601,0.102032531,0.111803469,0.392907707,0.607092293,0.191671658,0.247936303,0.420946422,0.579053578,0.175581149,0.2169258,0.618819897,0.448053995,0.251410544,0.219260671,0.224804763,0.349214943,0.482208589,0.46854083,0.339673096,0.224681488,0.14260638,0.106086723,0.058138535,0.22779318,0.301775148,-0.233103697,0.431321052,-0.247024029,-0.819444746,-0.486662465,-0.69801498,-0.284832834,-1.054067742,-1.038278215,0.205640527,-0.897553714,-0.805335129,-0.767104767,1.126323121,-0.453060703,-2.174301383,1.338120412,2.587913842,0.406311567,-0.805335129,-0.767104767,1.126323121,-0.453060703,-0.616421327,-0.68475626,0,0,-0.436487665,1.995405104,-1.03642676,-1.279737226,0.721919371,-0.593386778,-1.252902374,-1.067244147,1.288768603,-0.499642916,-0.620954235,-2.297519123,-1.128474172,-1.039288241,-0.41850321,-1.133647815,0.78713251,-0.079347472,0.20242765,-0.855664374,-1.721509166,-0.915862362,0
0.355827131,0.124356459,0.467397966,0.258782355,0.124311108,0.264064605,0.127399848,0.429535232,0.29532967,0.367871325,0.247910864,0.680705684,0.796240814,0.198035572,0.69114415,0.19626543,0.010867519,0.000297455,0.301179419,0.923123472,0.077052942,0.326501889,0.124311108,0.316475597,0.240961281,0.053029582,0.195016887,0.53123604,0.298145565,0.482006271,0.468137103,0.618090368,0.173469388,0.62166791,0.653648831,0.592321809,0.636977584,0.595383528,0.404616472,0.121355647,0.13355815,0.460898255,0.539101745,0.271322487,0.311756687,0.477917955,0.522082045,0.242585647,0.271788888,0.707519858,0.412422359,0.28907515,0.195994074,0.23316113,0.332972388,0.411042945,0.448460509,0.655494006,0.536799058,0.111122817,0.106804827,0.009109367,0.16357314,0.220907298,-1.354605218,1.160215336,0.540695933,-0.080812634,0.488768784,2.058533845,-1.366014905,0.373686999,0.06027397,-0.972936035,-0.366842493,0.32593563,0.175247821,-1.156683758,-0.191436743,0.592875493,0.057855915,-0.448502235,-1.390224152,0.32593563,0.175247821,-1.156683758,-0.191436743,-0.346203875,-0.124894989,-0.616016533,-0.963320284,-0.334573933,-1.192328993,-0.151796891,1.034649648,0.143836679,-0.114124945,0.696238652,0.545670391,-1.035279232,0.035704595,0.930973103,-0.169702906,0.043724497,-0.173147982,-0.356369569,0.307606577,0.36855334,0.486720739,-1.016128504,2.391687656,-0.291643182,1.987148974,0
0.352380015,0.17344056,0.471512868,0.278991351,0.17335673,0.283713456,0.177554789,0.431034483,0.28021978,0.348497363,0.231197772,0.753079062,0.783539371,0.209981418,0.66015718,0.298655887,0.018905365,0.000445284,0.274398192,0.913337116,0.086883517,0.40337792,0.17335673,0.329085045,0.330883082,0.072933034,0.134591435,0.581078894,0.232717147,0.278122206,0.265566517,0.471686874,0.040865384,0.662192465,0.68124763,0.648302541,0.747094384,0.721978355,0.278021645,0.18218615,0.163434891,0.381911419,0.618088581,0.261354216,0.340210997,0.444366121,0.555633879,0.253828854,0.299411198,0.795320191,0.407385213,0.181388995,0.176578201,0.175270689,0.038873849,0.077791411,0.042436412,0.070303442,0.055207784,0.037937655,0.037927782,0.003718736,0.019626271,0.019921105,0.1766613,-1.11211002,-0.909785471,-1.011041352,-0.985397734,-0.27419777,0.149368837,2.48761788,1.736355331,-1.225462731,1.048759859,2.589579297,1.981665088,-1.674702026,1.224294654,-0.571929208,0.137462586,0.471369799,0.513536078,2.589579297,1.981665088,-1.674702026,1.224294654,-0.375852225,-0.537541743,-0.655449139,-0.762373589,-0.398805277,-1.086325031,2.136576629,1.483713508,-1.193579115,1.17419126,1.688485323,1.188616201,-0.704728646,0.512225555,-0.417334817,1.39109351,-0.282571058,0.961699385,1.216100152,1.385331578,0.422829396,0.983779237,-2.555668308,0.653451581,-1.499596046,0.005836511,1
0.447701999,0.109291908,0.37431894,0.196790481,0.109638789,0.219293776,0.121996562,0.33958021,0.258241758,0.352128889,0.208356546,0.73211175,0.790767429,0.11574197,0.707893414,0.241542533,0.018894323,0.001606682,0.221965343,0.887621636,0.111915464,0.403294868,0.109638789,0.237817714,0.2842537,0.037717935,0.162234822,0.478610652,0.197192944,0.333226775,0.352196381,0.449574982,0.085,0.666089687,0.687943689,0.64643124,0.669604784,0.555108922,0.444891078,0.104159995,0.122381277,0.590588761,0.409411239,0.227983181,0.213038476,0.590940428,0.409059572,0.204268561,0.190840349,0.368850737,0.51748165,0.251913316,0.223684956,0.246752297,0.558202491,0.417177914,0.544846051,0.284020596,0.222796164,0.070739552,0.07174417,0.001578543,0.566123146,0.546351085,-1.367170657,1.205480857,1.571534256,1.554385224,1.437999477,-0.158400718,-1.295787927,0.257020521,-0.028246537,-1.313848196,-0.623818453,0.448474985,1.233568209,-0.024090029,0.898556129,0.874665057,-0.056341074,-0.777285099,-0.081211309,0.448474985,1.233568209,-0.024090029,0.898556129,2.179712052,2.604149891,2.155262599,1.911606732,3.206714157,0.258673855,-0.301292296,1.073526041,2.137460855,1.549948119,0.090920268,1.439130086,0.436773574,1.225981678,0.691806138,0.835811717,-0.679106591,0.241440596,1.757254827,1.261884072,0.844352963,1.74424588,1.097456207,-0.383201498,-0.17220526,-0.548903447,1
0.327468836,0.161192861,0.499099963,0.224476658,0.161517134,0.222583604,0.161150935,0.467766117,0.233516484,0.279845409,0.169359331,0.844857501,0.869796638,0.155295992,0.529173613,0.497507044,0.056288133,0.001639351,0.157790718,0.839136773,0.161117897,0.563003059,0.161517134,0.249005366,0.403672425,0.054500333,0.102021252,0.535493773,0.144804212,0.70918297,0.693765563,0.799082227,0.303571429,0.858945632,0.826707898,0.903770665,0.359646386,0.635061496,0.364938504,0.161136937,0.167568428,0.612988963,0.387011037,0.242702711,0.219185454,0.63039468,0.36960532,0.232780142,0.20495339,0.390187542,0.843765781,0.172049593,0.166251637,0.166508443,0.355711965,0.261349693,0.285140562,0.284531994,0.21645504,0.027539467,0.011337931,0.002668585,0.384427424,0.299802761,0.614538659,-0.602910877,-0.723787969,-0.959936061,-0.949025199,-0.381889028,0.658725252,0.001708765,1.146861861,1.162250874,1.132556368,-0.657218493,-0.346864098,0.94382865,-0.189652847,-0.381755154,-1.651095599,-0.698885341,-2.826434683,-0.657218493,-0.346864098,0.94382865,-0.189652847,1.098540479,0.616753905,-0.23686143,-0.048830468,0.039680697,-0.576485233,0.126634279,-0.57861066,-0.348462572,-0.410023659,0.224389125,0.103447283,-0.380186032,0.082195433,-2.022163693,-1.501545475,1.21673197,-1.678382444,-1.247389588,0.126323287,-1.140610422,-0.952038177,0.306625612,0.289208803,1.474169109,0.91171941,1
0.356125344,0.068903054,0.466385111,0.07432839,0.068827708,0.075596394,0.070118192,0.424287856,0.076923077,0.095866782,0.06908078,0.570338599,0.748953283,0.080169896,0.78872259,0.176871258,0.080196071,0.004285574,0.036404524,0.512030494,0.487577436,0.61606171,0.068827708,0.077020588,0.454740635,0.01152177,0.084430519,0.304944867,0.036208553,0.794647888,0.772496298,0.945534683,0.091071429,0.610671617,0.645179449,0.577597246,0.303290313,0.411159603,0.588840397,0.05764693,0.088001131,0.66494771,0.33505229,0.082873075,0.060227639,0.616662518,0.383337482,0.079373464,0.066101767,0.81136561,0.541115355,0.210759305,0.170822244,0.188148472,0,0.033742331,0.036813922,0,0,0.046445669,0.046435884,0,0,0.014930966,1.054664272,-0.749205013,-0.655055009,2.293812505,-0.055633692,-0.673151044,1.070484295,-0.972109041,-0.541361071,2.567724551,0.19490727,-0.880142827,-0.815281792,2.305378043,-0.053695243,-0.775221294,-0.489442063,0.471639967,0.688255268,-0.880142827,-0.815281792,2.305378043,-0.053695243,-0.683357484,-0.258589266,-0.142709633,0.170329442,-0.337294303,1.22291429,-1.100594372,-0.210373078,0.15787253,0.341600512,-0.457599422,0.086662511,0.910084941,0.454783847,-0.450543895,-0.543491185,0.205942349,-0.22106828,0.409833379,-0.161445276,1.183546164,0.708233053,-0.864945052,1.167418759,-2.831625272,0.405631698,1
0.461742358,0.06149213,0.359594878,0.062712667,0.061555547,0.074041988,0.07019974,0.334332834,0.050824176,0.074246546,0.041504178,0.477822935,0.809849503,0.089992036,0.672941176,0.262467501,0.170410351,0.016577931,0.023773303,0.402320028,0.594824432,0.730049436,0.061555547,0.055551094,0.498111862,0.008720797,0.071917628,0.267614869,0.01981085,0.745894189,0.742030772,0.925152777,0.051829269,0.557942683,0.597982811,0.52140766,0.398391186,0.288915763,0.711084237,0.043744334,0.087199899,0.621594869,0.378405131,0.058583563,0.044792461,0.544201304,0.455798696,0.056670597,0.054949781,0.601433007,0.48367106,0.254300682,0.212949147,0.230682261,0.306984299,0.25398773,0.277108434,0.2895796,0.154875477,0.067988192,0.023636752,0.019361047,0.24032392,0.211045365,0.511743322,-0.678897175,-0.673290255,0.485590229,-0.651456114,1.465933041,0.48882754,-0.06965642,-0.240123062,-0.338728087,-0.129313477,-0.345077781,-0.511486658,-0.130710206,-0.39614386,-0.605111519,1.038404006,0.485156507,0.81029068,-0.345077781,-0.511486658,-0.130710206,-0.39614386,-0.794638073,-0.833924055,-0.714117436,-0.937782242,-0.645298054,0.960938535,1.07154364,1.487259714,-0.596736746,1.251824758,-0.351778899,-0.572950837,-0.383237926,-0.551476689,-0.628007869,1.056476398,0.697321762,1.342294292,-0.285955078,-0.420530243,-0.068800962,-0.355987303,-0.578954208,-1.502829792,0.353767523,-1.434403587,0
0.365299321,0.069592334,0.457198081,0.092005369,0.069886513,0.094704146,0.071507071,0.407796102,0.082417582,0.105192293,0.091364903,0.569010727,0.78972999,0.077780727,0.470588235,0.313638956,0.065139883,0.002733777,0.084353116,0.71922779,0.280841406,0.584845458,0.069886513,0.105047822,0.374996243,0.01422926,0.113617602,0.334324065,0.06736446,0.803347595,0.809351571,0.94169734,0.184782609,0.639615427,0.668946811,0.611299171,0.598650452,0.465063057,0.534936943,0.062045538,0.085179453,0.496842552,0.503157448,0.09286247,0.101156579,0.499504055,0.500495945,0.088291178,0.095889895,0.462015607,0.530861963,0.207090139,0.220331329,0.219778651,0.341635084,0.252760736,0.275769746,0.1865038,0.157338659,0.019917297,0.021976459,0.000463156,0.35623326,0.278106509,1.220933813,-0.780540988,-0.980365838,0.144055655,-1.121390655,-0.977142624,1.172109252,0.779266763,0.344661787,-0.20303428,0.275493929,1.252061836,1.012595862,0.528190437,0.986462983,0.48506642,-0.083100528,-0.521354169,0.69955946,1.252061836,1.012595862,0.528190437,0.986462983,-0.631115579,-0.814499157,-0.784442053,-0.668069499,-0.640768587,0.360612743,0.497127553,1.658481132,1.068178662,1.481517214,1.262035917,1.267364695,-0.060219582,0.463755544,-0.285204507,0.137114944,0.300002811,1.061203452,-0.229255266,1.296511651,0.043622742,0.730823123,-0.705111531,0.872213536,-0.674289322,0.540585971,0
0.259892484,0.108103151,0.579669968,0.084098037,0.108276698,0.074589892,0.100062509,0.529985007,0.103021978,0.112384155,0.084401114,0.720182072,0.879253816,0.079373507,0.497737557,0.604520007,0.296314441,0.002897124,0.03294982,0.487320726,0.514296012,0.814228262,0.108276698,0.07290209,0.691612676,0.016441849,0.033155751,0.354908418,0.010472389,0.737829154,0.742837883,0.921068018,0.055921052,0.683689226,0.701305105,0.668763234,0.292264125,0.438725733,0.561274267,0.092790907,0.133661063,0.850178289,0.149821711,0.093199058,0.039738476,0.714730271,0.285269729,0.099566547,0.067964255,0.395939588,0.480391639,0.236260385,0.179369484,0.204650739,0.41959935,0.452760736,0.493975904,0.382743665,0.322016284,0.075372631,0.047519463,0.006756242,0.287314193,0.33530572,1.446290878,-0.803361941,-0.868615087,1.287746787,-0.787846374,-0.94897207,1.439647831,1.00589967,1.89951829,1.148913496,2.520675749,0.945336168,1.667547502,1.493281662,2.450518763,-0.739547061,-0.423080042,0.401480162,0.672439528,0.945336168,1.667547502,1.493281662,2.450518763,-0.750278933,-0.273924711,-0.332749943,-0.631454505,-0.508055206,1.296702414,-1.320992239,-1.019958444,1.172110755,-0.531820078,0.391353375,1.533444932,1.317107717,1.971676669,-0.162264616,-0.432663497,0.261507527,0.911658376,1.358501585,1.410130065,1.069424392,2.341640795,-0.360954093,-0.071043123,0.023415164,0.336295222,1
0.35086192,0.074772204,0.472664139,0.089699205,0.074703853,0.090639864,0.075712564,0.435532234,0.087912088,0.107960628,0.068523677,0.613820335,0.700244736,0.083089992,0.83673719,0.23134615,0.09843224,0.003583181,0.03898596,0.530218386,0.470127214,0.646935481,0.074703853,0.098791403,0.414668742,0.014418328,0.097928716,0.336189154,0.055000588,0.786419647,0.772496298,0.945534683,0.096590908,0.689121889,0.704888146,0.676582387,0.258798678,0.475551331,0.524448669,0.066903255,0.090054183,0.67912605,0.32087395,0.105660996,0.077704744,0.647267756,0.352732244,0.099479178,0.079407391,0.801884714,0.4985142,0.192406501,0.149658697,0.167065428,0.148890092,0.101472393,0.110709505,0.872724576,0.677502422,0.008354334,0.003434327,0.000189751,0.059568003,0.044970414,-1.25463491,2.718101748,1.972221461,-1.203355722,1.972919419,0.079065356,-1.23917381,-0.27042406,-0.21598511,-1.153130705,-0.794621946,0.255016403,0.511378885,-0.937922522,-0.47883372,1.569927653,-1.695804875,0.502641943,-1.691038114,0.255016403,0.511378885,-0.937922522,-0.47883372,2.385854439,1.06805204,0.938676547,1.909879248,1.5107282,-0.987802141,-0.941137646,-1.331182402,-0.108845388,-1.693272586,-1.188450229,-0.733759518,0.530749808,-0.590765218,-0.351721767,-0.685393321,-0.179274151,-0.364389623,0.286111133,-0.786518204,0.803224198,-0.40837383,-0.074360812,-1.058322876,0.697105475,-1.136376654,1
0.344266313,0.074079965,0.4797156,0.117852071,0.074018464,0.118412733,0.074468339,0.428785607,0.101648352,0.126131631,0.087465181,0.533656138,0.751967213,0.115476507,0.672552698,0.199329038,0.046510679,0.001786364,0.074562976,0.691470474,0.308715803,0.534591981,0.074018464,0.138084317,0.31937703,0.018050222,0.14081764,0.368380256,0.105910735,0.726809092,0.70989794,0.913422184,0.102822581,0.616788383,0.653700386,0.578744719,0.550026925,0.523988152,0.476011848,0.069470923,0.085244405,0.471239309,0.528760691,0.11873689,0.135752047,0.485573466,0.514426534,0.110197794,0.122807141,0.872880024,0.503168815,0.28033102,0.151895625,0.189941521,0.283161884,0.461349693,0.50334672,0.835142742,0.67386666,0.143433117,0.115702077,0.028638167,0.119245649,0.214990138,-1.004371324,0.547763939,0.709158689,-0.599252748,0.726605944,2.208383648,-0.991019846,1.281390843,0.897663272,-0.48311391,0.361702914,0.929257868,0.556308761,-0.543803443,0.02420868,-1.962106765,0.192434699,2.237415397,-2.146671217,0.929257868,0.556308761,-0.543803443,0.02420868,-0.859142383,-1.09973844,-0.958748348,-1.186379636,-0.703275231,-1.011661858,0.122646662,-0.358051421,-0.649367703,-0.923656206,1.554079056,0.343326648,-0.972019291,-0.397022661,-0.734069832,1.865963251,1.274039226,-1.234007525,-1.24632875,0.551999275,0.110935321,-0.273952839,0.154868509,1.284041405,0.895379,1.867732502,0
0.329387092,0.077915469,0.496480949,0.12327122,0.077863857,0.12173506,0.077113695,0.456521739,0.082417582,0.098172514,0.074651811,0.547748407,0.75522593,0.133528006,0.681900452,0.214291424,0.042007876,0.001345326,0.089301483,0.731854867,0.268472283,0.519495594,0.077863857,0.145244688,0.320627466,0.019503204,0.140123819,0.379654424,0.110483183,0.793668667,0.771944046,0.927694406,0.149122808,0.645413416,0.672273781,0.620412474,0.358040384,0.530052904,0.469947096,0.073324773,0.089098426,0.749503348,0.250496652,0.160108447,0.108375943,0.723136035,0.276863965,0.143239144,0.102308874,0.828564615,0.381548243,0.215694802,0.167500802,0.182234989,0.22252301,0.17791411,0.234270415,0.637802007,0.298803816,0.045624046,0.026034046,0.005729877,0.094184171,0.100197239,-1.057150015,0.788762841,0.643540848,-1.082921836,0.391420667,0.288278672,-1.043251088,-1.377837472,-1.334969226,-0.652655155,-1.263149037,-1.458973191,-1.402369766,-0.541895906,-1.162054195,-0.21032634,-0.463194277,-0.075068324,0.053292336,-1.458973191,-1.402369766,-0.541895906,-1.162054195,-0.421022056,-0.804770219,-0.765013107,-0.254883359,-0.601362225,-1.005491241,-0.27522653,-1.065855524,-0.427449862,-0.863172034,-1.187210715,-1.320857473,-1.132323761,-1.144757797,-0.834686592,-0.739523545,0.673776416,0.209875948,0.707759734,-1.197109669,-0.203921773,-0.988829311,-0.594830575,-1.164378269,-0.221350549,-1.445512831,0
0.324023717,0.066036466,0.50269692,0.092424413,0.066104422,0.090180429,0.0646583,0.454647676,0.09478022,0.113574036,0.076880223,0.579889062,0.59147541,0.066631272,0.593852395,0.308043072,0.057944292,0.001059469,0.093464087,0.741834681,0.25881882,0.567333709,0.066104422,0.105432203,0.356626302,0.013643979,0.121840611,0.328410095,0.07222297,0.696958043,0.699291455,0.910605299,0.108974358,0.730089851,0.734053091,0.731721462,0.244313028,0.449705113,0.550294887,0.057843446,0.081839856,0.737643218,0.262356782,0.117945764,0.077131747,0.695469467,0.304530533,0.106294857,0.07687939,0.610117991,0.500401405,0.253624228,0.184783719,0.202887004,0.159718462,0.160736196,0.175368139,0.185551274,0.101877966,0.221768738,0.147044346,0.107260432,0.10781135,0.113017751,-1.009371411,0.597899034,1.626143158,-0.256593503,1.507063927,-0.141541385,-1.019358073,-1.716763421,-1.66325854,-0.379158716,-1.467426849,-1.730095223,-1.419163158,-1.426098682,-1.252729861,0.604418535,0.103425682,-0.866982167,0.618026791,-1.730095223,-1.419163158,-1.426098682,-1.252729861,0.626067852,-0.423197957,-0.388967392,-0.1091184,-0.384853706,-0.455865609,-0.500715211,-0.597137468,0.469128857,-0.03677776,-1.111387492,-1.005940255,-0.498573998,-0.866391532,0.228396994,-1.604746394,-0.091813807,-1.765691856,1.180002727,-1.036563258,0.042055102,-0.742118254,-0.506898235,-0.64148591,0.324196051,-0.587032075,0
0.400281296,0.057427973,0.420420238,0.062561515,0.057401385,0.067800222,0.061286397,0.382308846,0.061813187,0.082370195,0.054038997,0.581356774,0.760883425,0.051765331,0.821266968,0.196942428,0.108255675,0.005853706,0.029130932,0.454528341,0.544995101,0.661302189,0.057401385,0.066236656,0.429079732,0.009083706,0.092831275,0.272966236,0.034201554,0.698909092,0.683193783,0.885362719,0.034836066,0.720518416,0.727656938,0.718121077,0.265082807,0.497425394,0.502574606,0.05308107,0.068117478,0.727751772,0.272248228,0.077058632,0.045642199,0.689332862,0.310667138,0.073546534,0.049994381,0.779199967,0.550287198,0.286094944,0.23003529,0.252245513,0.332972388,0.288343558,0.3145917,0.365711408,0.235236233,0.096516425,0.053691387,0.01609176,0.16357314,0.155226824,-0.778705171,0.018164611,0.462211976,-0.019941612,0.630724857,-0.955482598,-0.772041634,-0.423901056,-0.711580679,-0.786966131,-0.706538853,-0.570902154,-0.798764146,-0.71098049,-0.818520008,0.49437312,-1.04729601,-0.945445474,-1.163113269,-0.570902154,-0.798764146,-0.71098049,-0.818520008,1.643742608,2.213194331,2.279594358,1.955280922,2.558393899,-0.671373079,1.826725626,1.40325254,-1.20039602,1.079200695,-0.489342104,-1.113697191,-0.954917895,-0.914236052,1.101341689,-0.470662077,-1.775804088,-1.121076947,0.954922674,-0.988460351,-0.084412676,-0.798646235,1.312936839,-0.058180194,0.771393941,0.161062284,0
0.384574159,0.083043421,0.436909415,0.137857743,0.08299975,0.144925892,0.087251118,0.404797601,0.160714286,0.205341299,0.14178273,0.598813177,0.740015696,0.100610565,0.552036199,0.1732173,0.030735731,0.001402498,0.098560538,0.752437726,0.24755678,0.473520204,0.08299975,0.16380073,0.306786659,0.022452857,0.14805143,0.400374531,0.129437815,0.654927466,0.649610142,0.862930835,0.075892858,0.691648966,0.706546238,0.680118247,0.551920045,0.606463697,0.393536303,0.083133071,0.087722945,0.602487381,0.397512619,0.159893484,0.144051169,0.609636105,0.390363895,0.14573301,0.129822064,0.819750578,0.447347485,0.310429199,0.210543723,0.237037115,0.278830536,0.311656442,0.340026774,0.477703476,0.338254589,0.200123106,0.152935456,0.049543329,0.130053412,0.15877712,0.264625769,-0.632992274,-0.72374237,0.50477813,-0.581784087,-0.070551588,0.274871634,0.77515611,0.456540947,0.016222235,0.521002125,1.273073292,0.964900908,0.082958245,0.935292484,0.061670955,0.390335574,-0.167681013,0.541346817,1.273073292,0.964900908,0.082958245,0.935292484,-0.123217182,-0.42656919,-0.428209281,-0.148070336,-0.45007803,-0.358748208,0.845640038,0.496101723,-0.969086975,-0.064065878,1.767734807,1.406647751,-0.030346566,0.962264143,0.643498993,0.087763412,-0.257372562,0.639032515,-0.503627202,1.564146753,0.544313422,1.245931611,0.22533761,0.1557075,0.629137991,0.428970755,1
0.267288312,0.086236232,0.570504542,0.10497591,0.086628962,0.095305017,0.079790343,0.507496252,0.120879121,0.136641724,0.095264624,0.584013518,0.727588711,0.068224051,0.529173613,0.374183187,0.062495619,0.000501639,0.105808057,0.767511222,0.233316975,0.578640424,0.086628962,0.116998126,0.418466541,0.018245688,0.096556949,0.369943514,0.064561797,0.506915996,0.529264018,0.811732605,0,0.687427757,0.704773452,0.672375383,0.395410817,0.431050207,0.568949793,0.07390255,0.108148365,0.684851348,0.315148652,0.124330277,0.09272202,0.641241564,0.358758436,0.115791483,0.095269063,0.31200263,0.664938201,0.17633232,0.198865678,0.190456475,0.484569572,0.250306748,0.364123159,0.23762009,0.190606185,0.028692806,0.014101035,0.001765878,0.494071394,0.362919132,1.158582736,-0.766194233,-0.943313676,-0.379891758,-1.175731085,-1.031981303,1.220612072,-0.400122276,-0.217462602,0.888135193,0.003748217,-0.379443508,-0.63098595,0.202581803,-0.382037846,-0.623152704,0.005677276,0.466552558,0.392940659,-0.379443508,-0.63098595,0.202581803,-0.382037846,-0.467043346,0.165789691,-0.348184415,-0.844998341,-0.509866993,1.696203029,-1.195036425,-0.576125975,2.170110629,1.028632354,-0.276995005,0.785868773,2.186894148,1.503911247,-1.156939636,-0.383328049,1.083107722,1.155019503,-0.39551542,0.673309648,-2.844255113,-0.323258144,-0.719426001,-0.616761852,-0.679399146,-0.45626863,1
0.315001507,0.094187443,0.51311336,0.145054574,0.094599947,0.1412006,0.092166462,0.456521739,0.181318681,0.219128692,0.152089136,0.511556856,0.666642457,0.089726573,0.626563748,0.337195086,0.035633344,0.000879787,0.167679773,0.848761483,0.151555001,0.495207402,0.094599947,0.170811769,0.334605896,0.025777547,0.132650337,0.420929273,0.122719761,0.478020714,0.500704721,0.735019414,0,0.62480384,0.658499001,0.591469576,0.335803432,0.483901108,0.516098892,0.084863424,0.112750162,0.519266779,0.480733221,0.154476784,0.161488877,0.520431228,0.479568772,0.14206816,0.148475433,0.423574755,0.490539468,0.230109459,0.227679455,0.226566777,0.586356253,0.785276074,0.761713521,0.296329262,0.283807066,0.088557774,0.051395416,0.010637256,0.622511473,0.798816568,-0.552607959,-0.259500549,-0.568893898,-1.174026128,-0.854892807,0.757161896,-0.601708173,1.389100361,1.326355994,-0.624208491,0.483519958,0.709889117,0.865319551,-0.320978943,0.147531824,1.700009,2.471640558,-1.988355388,0.524671061,0.709889117,0.865319551,-0.320978943,0.147531824,0.074150139,1.488176933,1.644870705,0.745266705,0.711730235,-1.046428875,0.970018905,0.113589202,-1.085518739,-1.07001099,0.08756071,-0.676110037,-0.913197594,-0.891741501,2.630201037,1.712490064,-2.191433206,-0.612849854,-2.236449515,-0.90547039,-0.595730816,-1.135462665,2.71233755,1.633620816,0.712269143,1.319315345,1
0.434286502,0.081405426,0.386996598,0.110236831,0.081316922,0.122760958,0.089935782,0.345577211,0.118131868,0.162713192,0.094707521,0.651317706,0.751967213,0.099283249,0.675191816,0.720499458,0.051762853,0.002194731,0.250193888,0.902702282,0.097316999,0.550504796,0.081316922,0.125315126,0.37546997,0.018165292,0.113414256,0.369302374,0.079794761,0.343818182,0.335880444,0.551734042,0.052469136,0.671193193,0.691820553,0.653095758,0.358256438,0.518724401,0.481275599,0.075666493,0.094046909,0.648227741,0.351772259,0.128556629,0.104093302,0.633743698,0.366256302,0.119541026,0.100178155,0.867643056,0.527552649,0.632621992,0.65564476,0.637496409,0.179209529,0.404907975,0.40562249,0.704674014,0.549887494,0.191354663,0.216933851,0.035477352,0.071158937,0.164102564,1.286821946,-0.92928205,-1.004985834,-1.504732295,-1.548370524,-0.714961669,1.248580866,-0.111363405,0.334178768,0.26653509,0.59774932,-0.076086596,0.386950014,1.195718192,1.174929693,0.437650525,0.954620912,0.124047417,0.313068394,-0.076086596,0.386950014,1.195718192,1.174929693,-0.7732503,-0.622026404,-0.74061112,-0.920015153,-0.761470438,0.764964854,0.316351031,0.039882707,0.020596524,0.802300265,0.605018776,0.721433778,0.721004423,1.691699737,0.087589771,1.981951568,0.389598178,0.631951547,-1.48977248,0.690413622,-1.863173245,-0.018570541,0.223168412,0.660200207,0.287273278,0.54239648,1
0.44594591,0.084728224,0.375666425,0.114521051,0.084848573,0.129037149,0.09466135,0.332083958,0.093406593,0.132099145,0.090807799,0.543196265,0.658346995,0.104327051,0.497737557,0.699103004,0.020060656,0.001312657,0.608092466,0.977245418,0.022653497,0.411828165,0.084848573,0.130403189,0.378243854,0.019344046,0.112231948,0.378457133,0.082186782,0.255045454,0.266710489,0.428318481,0,0.606936313,0.643969679,0.570650916,0.573231164,0.606610591,0.393389409,0.084908351,0.089705274,0.580862555,0.419137445,0.1256345,0.116305862,0.59647445,0.40352555,0.120249043,0.108549171,0.594972537,0.358457969,0.786691931,0.79927424,0.790730366,0.41959935,0.445398773,0.485943775,0.31687103,0.185708943,0.169345651,0.15056651,0.029948631,0.324906411,0.370808679,0.311157128,-0.3904956,-0.532660834,0.047654054,-0.590137129,-0.638414676,0.261899795,-0.747444655,-0.910536783,-0.613884993,-1.319362159,-0.809128573,-0.774754283,0.277129082,-0.914175597,-0.832297131,-0.967658716,0.421515578,0.31007026,-0.809128573,-0.774754283,0.277129082,-0.914175597,-1.175190814,-1.338984172,-1.055299395,-1.817791826,-1.009236281,1.045263884,-0.0757414,0.037048188,-1.05273187,-0.288566678,-0.878741106,-0.796767387,1.247989175,-0.331447795,-0.553018602,-0.142770061,-1.555874473,-1.95434827,0.224332882,-0.768053632,-1.187362164,-0.424010564,0.450419061,-1.009214267,0.046120009,-0.529896077,0
0.445789536,0.085818534,0.375634371,0.117060173,0.086037197,0.131818614,0.095870797,0.332833583,0.126373626,0.176492064,0.091922006,0.669209813,0.826040353,0.091584816,0.564102564,0.161150882,0.069487619,0.003558679,0.038567747,0.527056925,0.472659726,0.594531189,0.086037197,0.130481641,0.382857263,0.019574622,0.110296745,0.380188807,0.08099518,0.533906093,0.526018642,0.742155525,0.1328125,0.54487086,0.604453092,0.478262998,0.620293221,0.490138033,0.509861967,0.077891828,0.102197563,0.567867887,0.432132113,0.124148828,0.11783551,0.56248856,0.43751144,0.116882286,0.112536631,0.403778384,0.777744616,0.771777397,0.77060516,0.753906701,0.415268002,0.420858896,0.459170013,0.298636404,0.25145921,0.198675812,0.131673798,0.086522483,0.429851354,0.463510848,-0.823549476,0.535978444,-0.050197513,-1.237547865,-0.361978621,-0.592639575,-0.862360751,-0.27383155,0.434876356,0.833729273,0.264981657,0.121077873,0.257726993,0.404887926,0.209683788,-2.518690161,-2.231273268,-2.64248709,-3.316317823,0.121077873,0.257726993,0.404887926,0.209683788,0.647378797,-0.236209174,-0.310314491,-0.389009177,-0.41234584,0.340806468,-0.130056073,0.65341273,0.620721213,0.094311662,-0.72609967,-0.742948254,-0.390623256,-0.920549818,0.550109603,0.058448578,-0.63506249,-1.008399464,-0.613245099,-0.6552518,-0.528297416,-1.152344012,-0.014740094,-1.270693335,-0.708440507,-0.987728815,0
0.630059271,0.073962413,0.219347876,0.200223985,0.073759122,0.261156315,0.098208012,0.217391304,0.131868132,0.212767041,0.109470752,0.398731483,0.583138173,0.215025219,0.603140804,0.14302357,0.005051681,0.000746659,0.421734054,0.952498152,0.046968608,0.228776903,0.073759122,0.239735409,0.187873149,0.02765147,0.249503487,0.431457602,0.284583592,0.239728455,0.218538876,0.473786786,0.051829269,0.392281613,0.444938237,0.345135726,0.793588144,0.335824109,0.664175891,0.056484644,0.100094255,0.454895442,0.545104558,0.203889106,0.237499507,0.445798141,0.554201859,0.174356651,0.206706224,0.652234283,0.244609913,1,0.965493843,0.962534807,0.668651868,0.904294479,0.925033467,0.414942165,0.310768721,0.333836633,0.340473557,0.025200216,0.453346491,0.629191321,0.663717221,-0.616093994,-0.456269699,0.665293154,-0.435066959,-0.72307565,0.621094889,-0.45474287,-0.290637273,1.215684304,0.159605231,-0.53221351,-0.053089992,0.654595994,0.097935611,-0.724612439,-0.246172395,1.60396045,0.31428778,-0.53221351,-0.053089992,0.654595994,0.097935611,0.817085804,2.377875836,2.596164991,1.280271778,2.712882409,-1.748102636,1.59192201,1.689731393,-0.85218541,1.193967972,0.572230517,0.8294512,0.583291593,0.539436553,-1.754553246,-1.709710794,0.763346825,0.531975348,0.808462786,0.944421556,-0.378061683,0.699185981,-1.351532488,-0.911467052,0.279552632,-0.645811893,1
0.412940834,0.109719448,0.408162092,0.156234726,0.109605215,0.168950414,0.118594948,0.360569715,0.137362637,0.185051848,0.113649025,0.66846979,0.775205845,0.142288293,0.774528198,0.584985571,0.034636979,0.000912457,0.301110478,0.923095756,0.077075781,0.491037249,0.109605215,0.180152109,0.367820597,0.030334468,0.116749962,0.445429217,0.116394176,0.278630193,0.27183913,0.412664063,0.061594202,0.676462089,0.693843635,0.663764419,0.546470626,0.700641199,0.299358801,0.115857978,0.104489986,0.524716674,0.475283326,0.163720097,0.169621002,0.567776731,0.432223269,0.158941175,0.153182166,0.904382462,0.392070355,0.596910963,0.631726153,0.615121394,0.148890092,0.169325153,0.184738956,0.326845226,0.194191365,0.047239433,0.026435253,0.005828856,0.059568003,0.07495069,0.284690265,-0.463840276,-0.062780056,1.898390218,0.914641806,2.652340536,0.283903246,-0.051599406,0.105770964,-0.637846735,0.030195584,0.0352862,0.150559772,-0.096482158,0.416507785,-0.007222358,-0.209521851,0.320696438,0.298739069,0.0352862,0.150559772,-0.096482158,0.416507785,1.163971196,0.373358948,0.407005356,1.609123017,0.798328166,-0.278599428,0.199745521,0.326594972,1.656027475,1.498813417,0.781142759,0.871263508,0.199535627,1.249366079,0.088897966,1.466504227,0.278055508,0.891311009,0.016039831,0.727258922,0.100104545,1.419870656,1.261770856,1.45941133,0.70107619,1.438041043,1
0.501705633,0.077591606,0.32521421,0.127064091,0.077508283,0.150918631,0.091497068,0.284857571,0.122252747,0.181656788,0.109192201,0.54183339,0.693215749,0.093708521,0.844877596,0.556727124,0.029811985,0.001451502,0.331469485,0.932323144,0.067641013,0.469061742,0.077508283,0.150210047,0.310341423,0.019920423,0.145962164,0.382751543,0.118076666,0.266594968,0.253750808,0.357054475,0,0.656771807,0.680733968,0.635067343,0.546182435,0.56725134,0.43274866,0.075425252,0.085397862,0.497601363,0.502398637,0.132967491,0.144491476,0.514038566,0.485961434,0.122834174,0.129732787,0.863464519,0.408500548,0.661551437,0.67975816,0.659708808,0.127233351,0.284662577,0.310575636,0.481173949,0.416379014,0.261909475,0.214331511,0.156783966,0.053772536,0.132149901,-0.655750683,0.281219929,0.261180604,-0.627901293,0.275603943,-0.468633447,-0.564643553,0.047143738,0.305297175,-0.124982704,0.344476155,0.052885305,0.734976155,0.630003168,0.847771443,0.828463535,0.377333059,0.098744169,0.30851024,0.052885305,0.734976155,0.630003168,0.847771443,-0.544237681,-0.803511955,-0.684205155,-0.590010097,-0.727684186,1.256997975,-0.917750351,-0.909112234,0.954272685,-0.693718051,-0.823618397,-0.311611662,0.891932025,0.327673478,-0.006260104,-0.497896799,-0.232187981,-0.255382271,0.541834011,-0.494349757,-0.263812718,-0.007736136,-1.47551754,0.021510679,-1.463118371,-0.598230398,0
0.486274844,0.085987258,0.338553091,0.132292781,0.085896327,0.15458136,0.099768468,0.29910045,0.10989011,0.161189675,0.101671309,0.56227652,0.751967213,0.159012477,0.769672222,0.310044913,0.014315324,0.000632317,0.369336118,0.942144618,0.057871805,0.36426711,0.085896327,0.15457467,0.333031155,0.022104451,0.13346718,0.398061049,0.112272511,0.29309091,0.273816981,0.373235191,0,0.635496299,0.664880448,0.60868286,0.514625585,0.679455492,0.320544508,0.090716278,0.083318059,0.42442174,0.57557826,0.126223357,0.157302419,0.473575804,0.526424196,0.122631699,0.139534269,0.929433718,0.394165388,0.750106019,0.715937881,0.705552464,0.191120736,0.285889571,0.311914324,0.400127264,0.191850805,0.282863052,0.130782276,0.131441793,0.081026894,0.133530572,1.75231516,-1.02374647,-0.879334348,1.084734713,-0.669046663,-0.63474042,1.812124791,-0.667295748,-0.556001857,1.067677103,-0.075180842,-0.673674133,-0.391524165,1.944169538,0.242449031,0.678351475,-0.868611365,-0.191641576,0.310988558,-0.673674133,-0.391524165,1.944169538,0.242449031,1.108303911,-0.400725629,-0.264567545,1.394450183,-0.066036764,0.524678084,0.081695746,0.058748375,-0.522868833,0.36649725,-0.86170128,-1.073723314,0.183070702,-0.795795292,1.294130825,-1.087056085,0.01162945,0.93938008,0.65170042,-0.987136167,0.473120767,-0.572873844,-0.726354993,-1.015758438,-0.947675445,-0.930620876,0
0.47758027,0.056875869,0.346024548,0.063012934,0.056918866,0.07581332,0.066051816,0.314842579,0.076923077,0.112674474,0.060167131,0.518852493,0.740898813,0.044066897,0.696832579,0.793418654,0.039056912,0.002496923,0.364084899,0.940738729,0.059103207,0.508728283,0.056918866,0.066255965,0.426167774,0.00902346,0.093838042,0.272090042,0.034653849,0.230119123,0.22809326,0.298923752,0.0425,0.635693061,0.667466826,0.603452607,0.563395263,0.596926726,0.403073274,0.057889001,0.060428672,0.420575076,0.579424924,0.05172242,0.069348161,0.472305393,0.527694607,0.056605694,0.065930395,0.425435353,0.379681169,0.678042812,0.728181074,0.702745875,0.349214943,0.321472393,0.291834003,0.405842419,0.278402472,0.20263045,0.134544639,0.083528736,0.22779318,0.18816568,-0.168606621,0.000562815,-0.296530779,-0.233241703,-0.372650812,0.833583992,-0.183759942,-1.194220878,-1.491754222,0.592505534,-1.637340148,-1.123735033,-1.540978266,-1.37480689,-1.670005156,-0.500247589,1.208351318,1.333212672,0.307556946,-1.123735033,-1.540978266,-1.37480689,-1.670005156,1.191804838,-0.518774534,-0.590197939,-0.094138359,-0.533413241,0.907743949,0.173318236,0.132930465,-0.010759336,0.09276841,-1.328736329,-1.882903076,-2.088251957,-1.976854758,0.273494675,0.166333229,-0.398589325,1.050100166,-0.314044847,-1.702166741,0.801691682,-1.740327022,-0.773188426,-1.029651438,-1.549035776,-0.968094851,0
0.556181091,0.04053715,0.277988213,0.064147126,0.040475077,0.084850637,0.051995744,0.249625187,0.06043956,0.10033163,0.043454039,0.314517994,0.522008808,0.089992036,0.878360394,0.225521148,0.028260202,0.000863453,0.140204795,0.819487204,0.180777344,0.461266954,0.040475077,0.072248104,0.312343878,0.007303499,0.144801777,0.244832736,0.0613084,0.458900951,0.426450553,0.622880529,0.059859155,0.548708185,0.594971792,0.504025909,0.359646386,0.386937889,0.613062111,0.033065234,0.054398539,0.514137695,0.485862305,0.065362705,0.068287552,0.500404824,0.499595176,0.058775621,0.063813827,0.876083633,0.442228095,0.839643393,0.876820068,0.859546314,0.732539253,0.739877301,0.763052209,0.588219909,0.472198379,0.253298691,0.240299182,0.061617637,0.357799602,0.376725838,-0.98095481,0.63081126,0.62552275,-0.430033687,0.772831025,0.475344066,-0.945337306,0.558171506,1.009704336,0.315604376,1.531347485,0.551417586,0.22718534,-1.27443648,-0.404915551,1.282116483,0.040786437,-0.434365732,0.30178773,0.551417586,0.22718534,-1.27443648,-0.404915551,-0.525217526,-0.187404449,-0.423638901,0.002652182,-0.409530319,-0.185412102,0.093549361,-0.076549976,-0.784387961,-0.384882694,0.332541891,0.985393142,0.479148487,1.054296756,1.048221373,-0.135502726,-1.573680208,-0.288759764,-0.55320374,0.670437436,0.146311413,1.362203617,0.572787223,1.633956142,1.863939331,2.302575271,0
0.44773049,0.098234307,0.374253916,0.136516529,0.098165891,0.153322215,0.109756747,0.323088456,0.126373626,0.178647008,0.125905292,0.594238367,0.738932346,0.09769047,0.518476621,1,0.029893941,0.00185987,0.595547547,0.976063868,0.023842599,0.469462597,0.098165891,0.156504803,0.37338552,0.024897492,0.114312157,0.415737691,0.099748193,0.283820951,0.277942213,0.306852765,0.067460318,0.687109121,0.704246948,0.672393593,0.502704108,0.536862961,0.463137039,0.092201855,0.111489684,0.546463055,0.453536945,0.145388352,0.144544169,0.554200267,0.445799733,0.137414693,0.135092891,0.782359032,0.422844864,0.553016412,0.616877661,0.589698802,0.348132106,0.349693252,0.381526104,0.538317699,0.371370369,0.042977337,0.023111772,0.003634381,0.162006798,0.178698225,0.78191161,-1.044562622,-0.90630769,1.281939912,-0.837861321,-0.651274571,0.819286989,2.56696666,2.445875849,-1.984493871,1.766133558,2.782006508,2.504056818,-1.18110684,1.882549893,0.695134207,0.555992033,-0.190495725,0.304822459,2.782006508,2.504056818,-1.18110684,1.882549893,0.281592875,-0.007491174,-0.059646152,-0.07198592,-0.08292989,-0.55292448,1.299790923,1.158031535,-1.429237719,0.35281229,2.142005146,1.12873032,-1.138165728,0.153508423,1.492659115,-0.805005372,-0.280513837,1.104731901,2.421560438,1.418408061,0.6299953,1.090826203,0.308855737,0.958486812,-0.132924512,0.157469569,1
0.630820782,0.048356512,0.220983816,0.114082359,0.04850033,0.153945374,0.065918922,0.194152924,0.118131868,0.19833107,0.099442897,0.34211974,0.563697982,0.081231749,0.687351864,0.301772718,0.010696932,0.001377996,0.468108773,0.96029024,0.039239206,0.324368117,0.04850033,0.141825978,0.214935224,0.013367384,0.219304821,0.325538102,0.161636524,0.279921329,0.269119935,0.394270122,0,0.720225924,0.728497111,0.715625787,0.629709149,0.598944213,0.401055787,0.050043487,0.051191963,0.390463809,0.609536191,0.110677377,0.148238577,0.411123008,0.588876992,0.098586306,0.127255376,0.441032797,0.304493579,0.939663133,1,0.976866624,1,1,1,0.286487795,0.231321504,0.232414945,0.196981561,0.041981611,1,1,-1.911157094,2.719526956,2.854673222,-0.829896387,2.443028922,0.972134048,-1.900807836,1.240231298,-0.390553668,-1.688963498,-0.553996535,0.618256021,-0.184231212,-0.824261858,-0.436349619,0.832841732,1.541833103,-0.249532347,0.267816586,0.618256021,-0.184231212,-0.824261858,-0.436349619,-2.064731297,0,0,0,0,-2.012262669,-2.593143863,-2.442896277,1.752532775,-2.539860491,0.957396848,1.076156961,-1.448520388,-0.331528315,-1.114517808,-0.196448962,2.046190373,-0.119968796,-1.220431862,1.194588924,2.297848,0.499318076,-0.54942834,-0.033673144,0.265675247,-0.365656088,1
0.61264978,0.030599781,0.234478817,0.030638466,0.030740143,0.049240254,0.04278674,0.213268366,0.017857143,0.042624876,0.01810585,0.258550023,0.548895952,0.033182904,0.630467572,0.80085183,0.049804817,0.005241154,0.289333377,0.918270755,0.081124302,0.544763925,0.030740143,0.032012411,0.387730501,0.003772861,0.108293719,0.168321221,0.020351337,0.311725417,0.328465667,0.341663062,0.068548388,0.703078397,0.716607682,0.692209632,0.490659729,0.52383602,0.47616398,0.030522501,0.035785315,0.735105255,0.264894745,0.042603172,0.016729799,0.704688876,0.295311124,0.040486267,0.020150573,0.427392882,0.528422402,0.90776847,0.923023118,0.898015318,0.509474824,0.611042945,0.666666667,0.255109092,0.173586161,0.307781438,0.333854751,0.072346114,0.542628009,0.698224852,-0.540594648,0.299921609,0.447690178,-0.11465882,0.409006331,-0.509662635,-0.589981187,-0.91201469,-0.996219644,0.758436121,-1.108609306,-0.946091648,-1.316877174,-0.355409674,-1.44638132,-0.171488279,-0.155679267,-0.193654256,0.2786698,-0.946091648,-1.316877174,-0.355409674,-1.44638132,-0.127509801,1.363892707,1.125310351,-0.403546629,0.491436383,-0.063153899,-0.039681142,-0.667821878,-0.351979543,-0.494443352,-0.771439155,-0.804475216,0.759589296,-0.659805048,-1.406753567,0.901153195,1.18708798,-1.522591485,-0.473232341,-1.038570423,-0.228364482,-1.155542413,2.073760594,0.536892504,1.357557923,0.585556634,1
0.449651488,0.037014926,0.372130333,0.066959876,0.036971655,0.077399637,0.042069488,0.336956522,0.043956044,0.064654107,0.040947075,0.255988227,0.460547886,0.079904433,0.688176274,0.256377538,0.011990229,0.001051302,0.359339336,0.939453115,0.060245212,0.339849307,0.036971655,0.080666105,0.271996569,0.007350416,0.170705518,0.245640622,0.079886397,0.241028708,0.228439433,0.414733969,0.031249999,0.689090467,0.705699349,0.675027182,0.235663027,0.467295164,0.532704836,0.033751084,0.045902378,0.73383146,0.26616854,0.092264543,0.05706123,0.705078633,0.294921367,0.080146747,0.053310852,0.923810135,0.423655694,0.328961723,0.253493393,0.26664036,0.208446129,0.26993865,0.294511379,0.621667623,0.558742382,0.085578163,0.053168046,0.020316837,0.082906505,0.119329389,0.417640128,-0.414533727,-0.338543338,0.279088352,-0.296273119,-0.859520524,0.422582519,0.802870854,1.747125545,1.442751397,2.396878071,0.183724696,0.252891495,-0.436330028,0.432216298,0.381607786,-2.052195158,-0.016939935,-1.527103813,0.183724696,0.252891495,-0.436330028,0.432216298,-0.419427931,-0.436564185,-0.45802391,-0.137495842,-0.365960433,-0.210981158,-0.125804904,-0.641177737,-0.287971027,-0.64720326,0.681479402,0.301784554,-1.543300834,-0.507468263,0.759602136,-0.145113306,-0.308638699,0.677450088,-0.654014723,0.170740476,-0.230306944,-0.718034723,-1.868644997,1.856761682,-0.441525076,0.333830417,1
0.380531648,0.054853462,0.440944009,0.112406286,0.054957103,0.117803862,0.057187751,0.40029985,0.096153846,0.123874695,0.073537604,0.421685172,0.622447512,0.097159543,0.609230769,0.238351485,0.006577165,0.000387296,0.562912639,0.972788525,0.027170577,0.261002459,0.054957103,0.13668249,0.247503202,0.014242848,0.189512882,0.334458821,0.137070815,0.241028708,0.254286017,0.419570879,0,0.745343193,0.749633208,0.74395716,0.082603924,0.53265842,0.46734158,0.052785477,0.062878203,0.649456449,0.350543551,0.139786098,0.113926471,0.639778528,0.360221472,0.122210359,0.101388402,0.517817999,0.345726545,0.290845046,0.197057781,0.222306446,0.082837033,0.25398773,0.208835341,0.032842626,0.02579061,0.245265785,0.24525804,0.02840943,0.072255376,0.158974359,0.710013217,-0.396768504,-0.46413858,-1.214081557,-0.645010157,0.011748356,0.674537394,-0.533968972,0.67965961,1.18513576,0.815315686,-0.608715666,-1.237101254,-0.344590051,-0.882187664,-1.831812743,-0.275481833,1.543677985,0.239731527,-0.608715666,-1.237101254,-0.344590051,-0.882187664,-0.475123961,0.413745333,0.416736057,-0.599521567,-0.038860295,-0.604156617,1.170675899,0.674809995,-1.691247245,-0.51878746,0.072283642,0.007527759,0.846829223,-0.043415338,-0.907568888,0.145107703,0.704476617,0.837641843,1.622702823,-0.009408029,0.574841573,0.746594246,1.00794112,0.224588802,1.888255703,1.517048243,0
0.391651807,0.07543686,0.429405047,0.099813437,0.075721361,0.106087985,0.079818332,0.395052474,0.083791209,0.108881544,0.074930362,0.429158467,0.68105223,0.078577117,0.516698987,0.279710252,0.029117666,0.000912457,0.169333702,0.850186945,0.150027652,0.465623042,0.075721361,0.113234053,0.38056373,0.015976364,0.11125401,0.350790321,0.071050436,0.255930233,0.277942213,0.40654843,0,0.740239551,0.74441269,0.739747168,0.377879233,0.479141944,0.520858056,0.068044944,0.09097994,0.51650407,0.48349593,0.102370958,0.107086085,0.518503107,0.481496893,0.097354972,0.101746151,0.336241313,0.311711888,0.26532768,0.199909244,0.213679278,0.118570655,0.16809816,0.183400268,0.487174082,0.38256735,0.215546596,0.215538546,0.162448746,0.135222342,0.185207101,1.086532708,-0.604499244,-0.514338437,-0.406893911,-0.597370395,-0.383104435,1.024816122,0.967021922,0.17751951,-0.985088637,-0.529012341,2.132617607,1.913578525,-1.19251775,0.555609918,-0.623624157,1.022365638,0.560950834,0.422925851,2.132617607,1.913578525,-1.19251775,0.555609918,-0.515087298,-0.403804528,-0.507190839,-1.600197057,-0.389164333,-0.604156617,1.794847956,1.607567405,-1.046229952,-0.176643799,2.077025606,1.847516581,-0.078114989,1.032569589,-1.13080023,-0.52754606,0.598037144,-1.302263258,0.165025277,2.094815956,0.214031602,2.273043832,-0.563470792,0.180095118,-1.25859244,-0.935082857,0
0.884787623,0.001683644,0.059152994,0.181759084,0.001449051,0.286380087,0.013761752,0.018365817,0.089285714,0.202184461,0.088579387,0.041321263,0,0.115211043,0.47176864,0,0,0.000192096,0.064403894,0.65466164,0.34224902,0,0.001449051,0.232873171,0,0.006673917,1,0.233581758,1,0.431593463,0.41108762,0.550818553,0,0.220104954,0.39375922,0,0.674948894,0.314531288,0.685468712,0,0.007566235,0.386911188,0.613088812,0.184334524,0.241286784,0.382394398,0.617605602,0.15116548,0.200697944,0.242628031,0.033198744,0.365267137,0.306827732,0.329061807,0.618841364,0.678527607,0.740294511,0.407661588,0.337485132,0.235300251,0.19690948,0.077927741,0.4204533,0.50295858,-2.939198974,3.250361475,3.273364539,0.425009382,3.171645332,-0.058471703,-2.976802195,-1.543686316,-1.842522214,-0.744957334,-1.45483463,-1.246828777,-1.534870873,-0.757971095,-1.9719688,1.379355368,1.303262768,-2.279406532,-0.469087464,-1.246828777,-1.534870873,-0.757971095,-1.9719688,3.190934214,3.180015476,3.023521064,2.011393921,3.29127361,-2.543525779,-0.041060395,-1.266794498,-0.284706007,-1.138423276,-0.616477561,-0.909547911,-1.584567061,-1.381909837,0.550920806,1.263381076,-1.395286566,0.565673035,1.820051585,-0.857243098,1.469413397,-1.184912842,1.387584016,-0.516749933,0.890547935,-0.124751152,1
0.401691968,0.06208897,0.419070177,0.124997343,0.062026322,0.134027184,0.066371237,0.371064468,0.129120879,0.171964516,0.108913649,0.473813523,0.693606557,0.101141492,0.79638009,0.170606833,0.006572658,0.000524507,0.405215514,0.949679791,0.050140129,0.260916667,0.062026322,0.152630617,0.24983679,0.016947763,0.187601837,0.359268298,0.149402526,0.344971076,0.331323091,0.50619847,0.027960527,0.671172038,0.692363829,0.651972161,0.225378692,0.463430357,0.536569643,0.055167178,0.075941368,0.696229534,0.303770466,0.161216438,0.121724269,0.673466475,0.326533525,0.139800608,0.109970671,0.902225623,0.373034412,0.404639611,0.271377728,0.293907752,0.119653492,0.236809816,0.294511379,0.607301658,0.459940712,0.209567775,0.106673026,0.181538248,0.0476638,0.119723866,-0.181368152,-0.037832799,-0.051511686,0.394005305,0.182687035,0.861951218,-0.179651083,-1.336021627,-0.4928612,2.037750844,0.857896212,-1.296250304,-1.012665659,2.283471677,0.608051897,0.525236675,-0.952990699,-0.278972759,1.236612682,-1.296250304,-1.012665659,2.283471677,0.608051897,0.396490196,-0.346445525,-0.344241446,1.338686343,-0.231228111,1.196173116,-1.427174611,-1.365157241,0.523113022,-0.501475035,-1.379416393,-0.979373711,1.307452595,-0.34115418,0.907867544,0.60407586,-0.627578236,0.266631374,0.017300974,-1.178896383,-0.493213053,-0.801169355,-0.703074314,-0.492593287,-1.27391265,-0.515075581,1
0.331732052,0.072325117,0.493729634,0.15965064,0.072268507,0.158595193,0.071647018,0.431409295,0.133241758,0.165098497,0.119777159,0.56227652,0.635245902,0.127156889,0.712147581,0.265779168,0.003593289,0.000194546,1,1,0,0.189959578,0.072268507,0.195680719,0.227761166,0.023100483,0.206827541,0.404588813,0.20235772,0.279256199,0.259570046,0.324693042,0.03663793,0.617539527,0.654788648,0.578836378,0.370830452,0.51340278,0.48659722,0.067226511,0.084116134,0.576816017,0.423183983,0.186118992,0.176712264,0.572606829,0.427393171,0.162291734,0.155203912,0.834274734,0.368805784,0.240651749,0.163930263,0.173353978,0.064212236,0.071042945,0.038688086,0.803748424,0.631166387,0.201256824,0.119900894,0.1223337,0.027457983,0.016508876,-0.140737745,-0.20385295,-0.179428714,0.377060406,-0.026741554,-0.254007558,-0.088615771,0.63414095,0.918135347,-0.063780881,0.307999136,0.0281984,0.031492662,-0.138393426,0.20094721,-0.587157871,0.632031189,0.611937092,0.790681676,0.0281984,0.031492662,-0.138393426,0.20094721,-0.431859723,-0.411300687,-0.440514993,-0.108668476,-0.357726792,0.262080624,-0.781487339,0.573247753,0.675454274,0.670265975,0.615231252,1.594610933,0.87781469,1.854763178,-1.097415534,-0.717711593,1.744703446,0.717185001,-0.461724389,1.403978982,-1.207168003,1.357626746,0.267128743,0.787154718,0.66982897,2.221868938,0
0.384966351,0.044546979,0.436131357,0.086172791,0.044514863,0.091004758,0.046597137,0.383808096,0.07967033,0.105293941,0.079108635,0.414288206,0.66584966,0.063445713,0.628959276,0.268524232,0.008132068,0.000426499,0.529747832,0.969036992,0.030943207,0.28808283,0.044514863,0.104717086,0.258764511,0.010053759,0.180531347,0.286456994,0.10460657,0.270820399,0.258092088,0.315885816,0,0.675408102,0.695585671,0.657337179,0.284458458,0.467666815,0.532333185,0.040284697,0.054840656,0.638854504,0.361145496,0.1075296,0.08696466,0.622404247,0.377595753,0.093752916,0.078540612,0.869778478,0.456146976,0.255897946,0.165666356,0.182210349,0.001732539,0.107116564,0.077911647,0,0,0.45282952,0.452823905,0,0.001409708,0.033333333,0.58460508,-0.43467849,-0.167712465,2.414468577,0.223105122,-0.128691761,0.640632617,0.328394213,0.634852591,0.149818733,0.518468592,-0.01596136,-0.081612027,-0.436150262,-0.522825614,0.751500954,0.652696357,-0.822636215,-1.456894435,-0.01596136,-0.081612027,-0.436150262,-0.522825614,-0.435920926,-0.428635556,-0.433861525,1.044943935,-0.336019917,0.337751923,0.401784277,-0.097681745,-0.53882502,-0.285076464,0.423430257,0.253816287,0.716711898,1.348470552,0.349450834,0.69032401,-0.138886022,-0.015201114,-1.735029542,0.234688659,-1.534125217,-0.592064365,0.535416337,0.71787378,0.61523235,0.525008962,0
0.322424735,0.064693187,0.504087649,0.139102435,0.064731163,0.136540315,0.063211276,0.457271364,0.112637363,0.135006265,0.094986072,0.553470248,0.640857503,0.131935227,0.779788839,0.127312725,0.003224329,0.00024355,0.52544979,0.96846727,0.031461613,0.178353815,0.064731163,0.169059461,0.2364068,0.018932377,0.198981764,0.375318515,0.172077871,0.32820979,0.336654811,0.463847203,0.047222222,0.55878548,0.613091196,0.499578641,0.496604748,0.449113477,0.550886523,0.056661168,0.080267941,0.504167253,0.495832747,0.150654981,0.16176804,0.500651892,0.499348108,0.131722312,0.142583371,0.663483613,0.39708813,0.203216539,0.180500492,0.183299698,0.112073633,0.160736196,0.117001339,0.68400342,0.537134738,0.105291316,0.11156364,0.014288158,0.077894209,0.075345168,-0.396529172,0.094720676,-0.188333383,-1.239215884,-0.38421449,-0.825490803,-0.423659525,-1.686598054,-1.402312001,0.191591441,-0.802744293,-1.268916844,-0.92291377,0.336873005,-1.208135446,0.940851698,0.218126073,-0.468518407,0.473152354,-1.268916844,-0.92291377,0.336873005,-1.208135446,-0.130315444,-0.377661673,-0.463622981,-0.743078427,-0.357726792,1.739911227,-1.519028032,-0.543341379,0.953198164,0.277864646,-1.218876067,-0.585440737,-0.023146595,-0.599391234,0.015415402,-1.810001754,-0.307559721,0.904116674,-0.204582474,-0.708221732,-0.124670324,-0.055436778,-0.154161582,-1.091298407,-0.818782339,-0.724345756,0
0.432191536,0.074099648,0.388341172,0.128428737,0.0740272,0.142278478,0.081806388,0.348575712,0.134615385,0.18407121,0.113649025,0.497300519,0.67389012,0.122113087,0.784668619,0.570391732,0.027114248,0.001190147,0.372237047,0.942808614,0.057196718,0.455244831,0.0740272,0.151268704,0.295752267,0.019306995,0.154786351,0.378177133,0.125070996,0.231395578,0.219191662,0.283765347,0.038636363,0.561854925,0.61281507,0.507906376,0.412441498,0.470871506,0.529128494,0.066038655,0.089682266,0.609048129,0.390951871,0.148851775,0.131893706,0.59513341,0.40486659,0.132560982,0.120658104,0.672498234,0.364728147,0.25837893,0.219611394,0.224845571,0.332972388,0.493251534,0.493975904,0.550298445,0.447643193,0.112119526,0.070743718,0.023096829,0.16357314,0.244575937,-0.259054105,-0.136382361,-0.149746785,0.017906845,-0.209496535,2.978275752,-0.207569197,0.406787422,-0.922000273,-0.838507204,-0.597141183,0.641546292,0.775811867,1.027827223,1.436041529,-1.296042277,-1.62708193,1.227014468,0.734777708,0.641546292,0.775811867,1.027827223,1.436041529,-0.248567707,-0.47548655,-0.490537306,-0.413306189,-0.380182179,0.234544606,-0.552562177,1.707295149,1.220971852,2.984668706,1.209932104,1.151254884,-0.828899568,0.9162882,-1.021629464,-1.604996926,0.91707985,-0.326673915,-1.159644863,1.106566506,-1.283923025,0.108978446,-0.400457938,1.504896337,0.026685819,0.418378159,0
0.353973996,0.078879429,0.469127603,0.162214919,0.07881447,0.165064704,0.080225485,0.424662669,0.168956044,0.211180396,0.144011142,0.531167409,0.750222737,0.140960977,0.811463047,0.08779571,0.005324518,0.000250901,0.252053779,0.903597428,0.096455355,0.235060966,0.07881447,0.196907763,0.246243967,0.024839102,0.190555349,0.415387265,0.189651677,0.360083993,0.339820688,0.514448715,0.070833333,0.576284009,0.620855875,0.531538867,0.437135985,0.475618795,0.524381205,0.070507993,0.094941807,0.587143937,0.412856063,0.188900555,0.176295599,0.577783738,0.422216262,0.165241158,0.156706094,0.793118423,0.343970015,0.317765752,0.269110939,0.292293173,0.348132106,0.467484663,0.510040161,0.550263311,0.312910019,0.090536407,0.045889339,0.020503967,0.162006798,0.238658777,0.375163868,-0.442437935,-0.411862319,0.258499066,-0.322364334,-0.734204727,0.373954961,1.501666588,0.821725997,-0.661686753,-0.038728002,1.284902923,1.2486407,-0.436154344,1.164924562,-0.78398385,0.641363972,0.572506173,1.206520084,1.284902923,1.2486407,-0.436154344,1.164924562,-0.124620932,-0.467187231,-0.479443353,-0.59925238,-0.377188127,-0.048903926,0.902610738,-0.121609349,-1.087706939,-0.039812881,-0.547740712,-0.837203348,0.951836117,-0.226059343,-1.146056264,1.187960709,0.823496244,0.929534971,-0.003866512,-0.702922703,1.594218168,0.468385929,-0.782833,-0.949850794,-1.271438638,-1.104002231,1
0.469591455,0.042158968,0.352856477,0.164859296,0.042153636,0.18842792,0.048963948,0.344077961,0.134615385,0.185076852,0.130362117,0.334544453,0.486206593,0.091850279,0.362637363,0.122438939,0.007374551,0.00051634,0.265795295,0.909452773,0.090366303,0.275486211,0.042153636,0.207595335,0.126511391,0.016449506,0.346833116,0.354975298,0.336901231,0.312727274,0.302693602,0.418716124,0,0.407491635,0.489454559,0.323870056,0.514625585,0.371228311,0.628771689,0.033770076,0.057524282,0.604055585,0.395944415,0.201708034,0.183400532,0.59056262,0.40943738,0.168911141,0.156807847,0.569276283,0.302498841,0.40048599,0.310446036,0.343299843,0.484569572,0.666257669,0.726907631,0.230175554,0.187189611,0.627187209,0.73679327,0.135070783,0.494071394,0.727810651,0.854416999,-0.50735437,-0.595936316,-1.524539812,-0.771738914,-0.3787832,0.798978521,0.437822528,-0.042378161,-1.14352943,-0.685951993,0.333164605,-0.017882906,-1.158453069,-0.699342574,1.342723247,0.090479831,-0.92211387,-0.003539212,0.333164605,-0.017882906,-1.158453069,-0.699342574,-0.088840414,0.245678036,0.177179233,-0.19350426,-0.045596911,0.001126655,0.843042319,0.566739719,-0.231793107,-0.413150617,-0.298575424,-1.046861596,-1.21304807,-1.154953003,1.996208106,1.180218879,-2.008250708,-0.867073656,-0.340498028,-0.733299646,1.072066384,-0.829400608,1.817913719,-1.131844726,1.057227803,-0.819006719,1
0.484968133,0.039378995,0.339920246,0.120894659,0.039487886,0.141537064,0.046619449,0.311469265,0.186813187,0.26440009,0.142618384,0.358753807,0.537978142,0.065569419,0.644439152,0.091061239,0.009237864,0.000388113,0.163604524,0.844750128,0.155351818,0.304789738,0.039487886,0.14973426,0.171162939,0.012089658,0.271357901,0.311565295,0.205668835,0.318454546,0.308668075,0.40200091,0.088541667,0.835746979,0.803685672,0.88452411,0.487905034,0.630607646,0.369392354,0.042874959,0.039630359,0.575038258,0.424961742,0.142972304,0.134733156,0.578575035,0.421424965,0.122637246,0.114724251,0.392636849,0.408229787,0.28942802,0.226971112,0.243971207,0.586356253,0.611042945,0.666666667,0.223500064,0.169314294,0.066931161,0.07318158,0.007522917,0.622511473,0.698224852,-0.111483853,-0.16674177,-0.211812516,0.21869323,-0.324227992,-0.229700615,-0.059204363,0.021570494,-0.276944749,-0.569497937,-0.788145255,-0.167481572,0.584631241,1.252388119,0.886668684,-0.19865483,0.347423792,0.272501166,-1.64777696,-0.167481572,0.584631241,1.252388119,0.886668684,-0.717660075,-0.492352909,0,0,-0.411619721,0.240135947,-0.66584373,-1.093898073,1.795741985,-0.212226534,-1.018296104,-0.798083694,0.570432594,-0.897740321,0.724005552,-0.265698598,-0.001593349,-2.387021043,0.934279871,-0.820798988,-0.051164556,-0.773610528,-0.543341312,-1.08903329,-0.083527437,-0.793870421,1
0.263202722,0.046333386,0.575163526,0.122968811,0.04629872,0.111907108,0.041111348,0.523988006,0.087912088,0.09566404,0.084679666,0.448957243,0.600436881,0.106981683,0.635207929,0.194544749,0.004463604,5.79E-05,0.627062904,0.97919833,0.020953302,0.214285947,0.04629872,0.153533422,0.191560228,0.013748944,0.245039177,0.329486765,0.191137243,0.411282881,0.403603114,0.582675474,0.296511629,0.61391746,0.64972951,0.578453689,0.64576183,0.554531231,0.445468769,0.045949178,0.051660004,0.469202363,0.530797637,0.131880503,0.151053464,0.476500897,0.523499103,0.114393867,0.129613535,0.8194907,0.33216007,0.444337531,0.469973745,0.459886909,0.476989713,0.539877301,0.589022758,0.595922096,0.473777146,0.1256428,0.125237286,0.016709682,0.190200962,0.238658777,0.786028239,-0.557037291,-0.337654455,0.535891714,-0.002923386,-1.423461631,0.848548069,-0.591963811,-0.485704361,1.440503204,1.068631575,-0.225472163,0.025320279,0.133460515,0.977558472,-0.394062422,0.297065169,0.633514755,0.298593509,-0.225472163,0.025320279,0.133460515,0.977558472,0.532925249,-0.019285781,-0.090321403,0.230628035,0.342604649,-0.567202963,1.13974713,0.290203645,-0.638970687,0.152945266,1.183568454,1.170321118,-0.274682109,0.773851505,0.109728057,1.044000808,0.469074014,0.103151868,-1.170382278,1.15952486,-0.198796845,2.087594184,-0.308856421,1.18434624,1.351875134,1.868484861,1
0.323028036,0.027008876,0.50384482,0.036757107,0.027114163,0.034587453,0.025234622,0.455022489,0.021978022,0.024378222,0.028969359,0.294452767,0.41036998,0.031590125,0.687782805,0.367948212,0.050991901,0.001835368,0.127978516,0.803277722,0.196890413,0.548270013,0.027114163,0.042144952,0.32052349,0.00395053,0.140181348,0.173172055,0.038027411,0.573719768,0.573570962,0.678681697,0.2125,0.632591305,0.663403067,0.602803958,0.405995305,0.491987935,0.508012065,0.026129519,0.033089919,0.703212887,0.296787113,0.05097539,0.0273325,0.677687092,0.322312908,0.0457352,0.027549523,0.588247307,0.531401787,0.460798462,0.49194497,0.478990981,0.41959935,0.445398773,0.485943775,0.312412897,0.226551483,0.131026011,0.140965469,0.020397381,0.324906411,0.370808679,-0.837541551,0.689989357,-0.075640758,-1.028520487,-0.452466567,-0.644333401,-0.893836299,0.029406489,-0.116477865,0.463313097,0.261553183,-0.414640253,-0.944927932,-0.079188772,-0.893369436,0.630837498,0.272672087,-0.733029817,0.266702302,-0.414640253,-0.944927932,-0.079188772,-0.893369436,-0.758551545,0.933328124,0,0,-0.652319252,1.32070385,-0.413660546,0.133566743,-0.176595849,-0.555377819,-0.898494584,-0.44471404,1.354692421,-0.135293823,0.296385408,0.014046089,-0.113728296,-0.027937993,1.063079373,-0.51951306,2.029863947,0.928917071,0.611468471,-1.573582305,0.793577336,-0.857328709,0
0.307325672,0.034835504,0.521205241,0.108385769,0.035053013,0.103969379,0.032352858,0.48125937,0.137362637,0.160755734,0.120334262,0.385607499,0.438909128,0.069551367,0.597285068,0.147432848,0.003002402,0.000161877,0.636290891,0.979867306,0.020148646,0.170924228,0.035053013,0.136685179,0.169639423,0.010406638,0.273494056,0.291098013,0.192518189,0,0.007243468,0.324693042,0,0.711586511,0.720025806,0.708353938,0.367493434,0.491226423,0.508773577,0.033085591,0.042410407,0.58514311,0.41485689,0.132043108,0.121563842,0.578234419,0.421765581,0.111962901,0.104329948,0.375066274,0.38329644,0.454946379,0.523044919,0.500328322,0.711965349,0.757055215,0.733601071,0.268784085,0.188535395,0.116474294,0.119508486,0.003719582,0.722757389,0.73964497,1.182842803,-0.79847719,-0.847941158,-1.065069541,-0.972403332,-1.053658015,1.245649622,-0.563088608,-0.750036346,-0.021362363,-1.198056676,-0.637039224,-0.699479383,0.560048546,-0.36391269,-0.917758696,-0.02357759,0.763123719,0.13599622,-0.637039224,-0.699479383,0.560048546,-0.36391269,-0.953573208,0,0,0,0,-0.147922542,-0.185047789,0.632350315,-0.270927108,-0.331011206,-0.803070157,-1.101514319,-1.356097195,-1.653886291,-0.302359087,-0.840644501,-0.225061814,-0.834853043,0.918813802,-0.969916213,0.952077281,-1.008338423,0.778395793,-0.845840701,0.45483207,-0.691876505,0
