ECG_Rate_Mean,HRV_RMSSD,HRV_MeanNN,HRV_SDNN,HRV_SDSD,HRV_CVNN,HRV_CVSD,HRV_MedianNN,HRV_MadNN,HRV_MCVNN,HRV_IQRNN,HRV_pNN50,HRV_pNN20,HRV_TINN,HRV_HTI,HRV_LF,HRV_HF,HRV_VHF,HRV_LFHF,HRV_LFn,HRV_HFn,HRV_LnHF,HRV_SD1,HRV_SD2,HRV_SD1SD2,HRV_S,HRV_CSI,HRV_CVI,HRV_CSI_Modified,HRV_PIP,HRV_IALS,HRV_PSS,HRV_PAS,HRV_GI,HRV_SI,HRV_AI,HRV_PI,HRV_C1d,HRV_C1a,HRV_SD1d,HRV_SD1a,HRV_C2d,HRV_C2a,HRV_SD2d,HRV_SD2a,HRV_Cd,HRV_Ca,HRV_SDNNd,HRV_SDNNa,HRV_ApEn,HRV_SampEn,max GSR,min GSR,mean GSR,number of peaks,number of peaks SCIPY,number of valleys,mean time between peaks,median time between peaks,mean height of peaks,median height of peaks,variance height of peaks,ratio of peaks,ratio of valleys,labels
39.55205326,116.9449364,1518.512605,188.14008,117.1864587,0.123897608,0.077012819,1552.5,80.8017,0.052046184,109.25,30.25210084,62.60504202,1021,5.534883721,0.025456518,0.005328023,0.000452648,4.777854314,0.81494267,0.170566664,-5.234775,82.86333959,252.8405232,0.327729663,65820.16785,3.051295356,5.525329095,3085.964457,0.575630252,0.56768559,0.853846154,0.152542373,51.15093719,51.20245754,51.18169835,45.41484716,0.457018302,0.542981698,56.02106898,61.06286702,0.535671412,0.464328588,185.0529084,172.2897306,0.52804219,0.47195781,136.7167493,129.2525145,0.710698041,0.716863707,3.982483904,3.317402789,3.560146243,2.75E-05,1.93E-05,1.93E-05,126117,123327,0.01626245,0.009380335,0.000347326,7.57E-11,5.30E-11,1
38.23232262,54.81803106,1569.598361,94.00717924,55.03797712,0.059892506,0.034924878,1594.5,71.9061,0.045096331,105.5,27.04918033,65.57377049,456,4.066666667,0.023700426,0.003052106,4.88E-05,7.765268707,0.88430146,0.113879055,-5.791923311,38.91772685,127.4792461,0.305286766,15586.07726,3.275608738,4.899706935,1670.28853,0.557377049,0.56302521,0.865671642,0.060606061,48.75632842,48.8190463,48.70079653,45.37815126,0.366953882,0.633046118,23.57850363,30.96907059,0.53027418,0.46972582,92.8302943,87.3698727,0.516346724,0.483653276,67.72521455,65.54608299,0.688536202,0.995199193,7.146960287,4.043869449,5.567496013,4.15E-05,3.63E-05,3.63E-05,67938,57480,0.135893088,0.083338673,0.015210999,2.15E-10,1.88E-10,0
37.52695907,113.5998826,1596.813187,160.9339348,114.0756676,0.100784448,0.071141624,1645,102.2994,0.062188085,148,34.06593407,67.03296703,853,3.5,0.041010336,0.006112926,0.000152579,6.708789257,0.867469199,0.129303391,-5.097349654,80.66367809,209.0846945,0.385794275,52984.65812,2.592055055,5.431120246,2167.836157,0.494505495,0.494252874,0.720930233,0.045454545,44.84006093,44.68030669,45.07251757,43.67816092,0.404962271,0.595037729,51.40394118,62.31052177,0.686221039,0.313778961,173.2025402,117.1208332,0.649693297,0.350306703,127.7526616,93.80802389,0.714635811,1.057622944,4.711197092,2.393336905,4.072887837,4.11E-05,4.11E-05,4.11E-05,41394,40761,0.101819568,0.12570227,0.003313118,2.82E-10,2.82E-10,0
35.3622689,88.93929622,1697.464567,139.3597489,89.29255253,0.082098768,0.052395377,1717,85.9908,0.050082003,117,39.37007874,78.74015748,871,4.703703704,0.023782666,0.004243908,9.24E-05,5.603954882,0.845785796,0.150926589,-5.462270841,63.1393694,187.4288207,0.336871188,37178.03958,2.968493706,5.277256595,2225.525098,0.598425197,0.608,0.934210526,0,50.53471908,50.45364297,50.60209366,44,0.517470414,0.482529586,45.42047996,43.86023256,0.748384643,0.251615357,162.1432247,94.01668736,0.724849827,0.275150173,119.0660433,73.35822211,0.857761606,1.096083842,7.700064494,3.213555823,5.407625223,5.07E-05,4.15E-05,4.15E-05,99293,99595.5,0.20758611,0.14682362,0.028586694,2.34E-10,1.91E-10,3
36.70665206,44.17408743,1634.791855,88.79190241,44.27296997,0.054313888,0.02702123,1654,75.6126,0.045714994,106,23.98190045,63.34841629,483,4.510204082,0.003797126,0.001664463,8.79E-06,2.281292443,0.694125378,0.304268477,-6.39825297,31.30571729,121.7815169,0.257064603,11977.18922,3.890072722,4.785325021,1894.955827,0.619909502,0.61682243,0.909090909,0.13559322,50.58437295,50.56759127,50.59979749,46.72897196,0.521145035,0.478854965,22.6006627,21.66426049,0.502783918,0.497216082,86.3519339,85.87247148,0.503922141,0.496077859,63.1167428,62.62356402,0.954808639,1.366037085,3.608285413,2.973925921,3.232516924,1.93E-05,3.03E-05,3.03E-05,98438,77690.5,0.013797683,0.005141212,0.000326152,5.32E-11,8.35E-11,1
39.00043884,56.63885115,1538.695067,128.3463302,56.75164415,0.083412453,0.036809666,1570,111.195,0.070824841,155,29.14798206,69.05829596,743,4.744680851,0.011095985,0.001703315,8.17E-05,6.514346613,0.86142257,0.132234685,-6.375178851,40.12947242,176.8689254,0.226888202,22297.94604,4.407457032,5.05523497,3118.168757,0.421524664,0.422727273,0.720430108,0.078431373,48.34301332,48.41457159,48.28514331,50,0.479914121,0.520085879,27.80747482,28.94791703,0.585721254,0.414278746,135.362083,113.8407803,0.58053851,0.41946149,97.71424969,83.05933167,0.923796302,1.127860718,4.308028655,3.425198682,3.751488823,1.45E-05,3.18E-05,3.18E-05,63597,69602,0.046582363,0.020549187,0.002172574,4.19E-11,9.21E-11,2
40.45469423,53.27460376,1483.482609,136.0867215,53.37494522,0.091734625,0.035911849,1512,148.26,0.098055556,222.5,30.43478261,66.95652174,551,4.693877551,0.005463156,0.000955837,1.50E-05,5.715570203,0.84911044,0.148560933,-6.952922703,37.74178571,188.6016928,0.200113717,22362.37385,4.997158699,5.056488014,3769.890359,0.504347826,0.502222222,0.778761062,0.035087719,48.28836998,48.25944344,48.32238814,47.11111111,0.440099455,0.559900545,25.0455725,28.24951482,0.49880449,0.50119551,133.2020055,133.5208757,0.496542802,0.503457198,95.83854905,96.50352155,0.825080882,0.981476712,6.261925553,3.320883076,4.980060179,4.07E-05,2.91E-05,2.91E-05,126543,98948,0.11354107,0.103917993,0.007133934,1.19E-10,8.47E-11,2
43.01173177,35.87056636,1395.269939,142.5312208,35.9801815,0.102153151,0.025708693,1376,174.9468,0.12714157,237,15.95092025,53.37423313,564,4.794117647,0.002587045,0.000240404,4.67E-06,10.76123578,0.913465302,0.084884796,-8.333189436,25.44183033,199.1820892,0.127731517,15920.19958,7.828921373,4.908918618,6237.523661,0.429447853,0.438271605,0.732394366,0.076923077,49.4007409,49.47469978,49.32159609,48.7654321,0.477608002,0.522391998,17.58343023,18.38933663,0.547126591,0.452873409,147.3310197,134.0413193,0.546010482,0.453989518,104.9180785,95.66933415,0.679170789,0.670674325,4.656700479,3.305709828,4.01725371,3.93E-05,5.68E-05,6.12E-05,95736,86642.5,0.047702052,0.02328965,0.002891129,1.72E-10,2.67E-10,2
38.04704497,135.8928093,1580.441489,191.9851035,136.2165373,0.121475616,0.085984081,1623.5,131.9514,0.081275885,191.75,30.31914894,64.89361702,1212,4.372093023,0.007713026,0.004277513,0.000174409,1.803156706,0.634036903,0.351626068,-5.45438361,96.31963722,251.9947543,0.382228739,76252.87297,2.616234462,5.589226321,2637.109442,0.505319149,0.5,0.769230769,0.083333333,53.07328605,53.04834355,53.04360989,49.45054945,0.56888161,0.43111839,72.67026725,63.26216998,0.732572056,0.267427944,215.6833768,130.3151455,0.711694652,0.288305348,160.9352149,102.4308042,0.77963249,0.764443477,6.673863391,1.859818992,4.736634643,4.02E-05,4.69E-05,4.36E-05,95287,106329,0.214722947,0.241624558,0.020449828,1.35E-10,1.46E-10,0
36.33318592,59.60102277,1651.730159,85.59607139,59.74916921,0.051822067,0.036083995,1669,63.7518,0.038197603,85,21.69312169,66.13756614,600,5.25,0.024158884,0.005732556,8.27E-05,4.214330538,0.805992213,0.191250355,-5.161593847,42.24904272,113.0020693,0.373878487,14998.68355,2.674665793,4.883023252,1208.971077,0.597883598,0.604278075,0.902654867,0.035087719,51.54166069,51.63639072,51.45675138,47.59358289,0.414857696,0.585142304,27.21738592,32.32418508,0.672037256,0.327962744,92.63669905,64.71406077,0.64048614,0.35951386,68.27277681,51.15057479,1.004631533,1.322504623,3.288227828,2.905534775,3.079465482,2.54E-05,6.34E-06,9.52E-06,147429,149419,0.003461983,0.001951831,1.91E-05,8.05E-11,3.02E-11,1
36.23893197,73.05603266,1655.886364,110.6801784,73.44841642,0.066840443,0.044118989,1683.5,81.543,0.04843659,114.75,25,52.27272727,602,3.52,0.019425551,0.004089992,0.000110989,4.749532578,0.82219223,0.173110136,-5.499212238,51.93587332,147.9397784,0.351060911,24138.05515,2.848508534,5.089672385,1685.630885,0.625,0.626506024,0.923076923,0.181818182,47.37141233,47.54644717,47.2349497,48.19277108,0.400320889,0.599679111,32.8742318,40.23564311,0.525030158,0.474969842,107.1956319,101.9572191,0.511336567,0.488663433,79.283096,77.505424,0.757023103,1.16315081,6.500643517,2.955364171,4.28802354,4.07E-05,3.40E-05,4.07E-05,48687,50700,0.190378038,0.175990303,0.00469822,2.77E-10,2.77E-10,3
37.38038453,40.72302427,1605.244186,72.23864634,40.95456935,0.045001656,0.025368741,1601,89.6973,0.056025796,114.25,18.60465116,59.30232558,331,4.777777778,0.00663301,0.002103089,1.22E-05,3.15393639,0.758205325,0.240399688,-6.164347942,28.95925371,96.54417285,0.299958587,8783.41301,3.333793537,4.650633414,1287.433358,0.604651163,0.623529412,0.867924528,0.130434783,48.58611825,48.69497334,48.47062979,45.88235294,0.46075865,0.53924135,19.66217665,21.27092807,0.570632746,0.429367254,72.92969733,63.26165157,0.561558751,0.438441249,53.41040134,47.193691,0.53195718,1.432103897,5.366421539,3.13648455,4.198029792,4.27E-05,2.85E-05,2.85E-05,73542,73543,0.084172558,0.085620273,0.004010931,3.04E-10,2.03E-10,3
37.6913063,38.61478693,1591.885463,78.73999507,38.69702424,0.049463355,0.024257265,1599,74.13,0.046360225,102,18.94273128,63.87665198,430,5.044444444,0.005139054,0.002279928,1.22E-05,2.25404241,0.691551248,0.306804896,-6.083611487,27.36292825,108.025349,0.253300994,9286.201918,3.947872393,4.674808233,1705.881173,0.524229075,0.526785714,0.813559322,0,49.17103585,49.19106503,49.15272188,42.41071429,0.427740965,0.572259035,17.89748586,20.70131504,0.573986621,0.426013379,81.84206208,70.50782164,0.565167555,0.434832445,59.23868299,51.96103038,0.924775981,1.269760545,12.01120764,8.370944838,9.118960539,1.65E-05,2.20E-05,1.93E-05,212170,247136,0.225491383,0.213208127,0.024432378,4.54E-11,5.30E-11,1
40.11808035,35.16965684,1495.551181,41.61152707,35.30539416,0.027823539,0.023516184,1493,35.5824,0.02383282,51,18.11023622,57.48031496,214,5.08,0.011186572,0.007852392,6.65E-05,1.424606925,0.585516497,0.411002141,-4.846937045,24.96468363,52.68205441,0.473874527,4131.793822,2.11026325,4.323108752,444.6920135,0.57480315,0.587301587,0.918918919,0.023255814,49.00332226,49.04436556,48.96103736,50.79365079,0.474648701,0.525351299,17.20162783,18.09707159,0.472431175,0.527568825,36.21028781,38.2650482,0.472837909,0.527162091,28.34678944,29.93090304,0.729965954,1.902107526,10.61675776,6.552884505,7.602410703,3.11E-05,3.11E-05,3.11E-05,103778,108125,0.139650772,0.143581633,0.012450007,1.61E-10,1.61E-10,0
38.76226875,31.94288381,1547.827957,40.97284988,32.09931435,0.026471191,0.020637231,1550,42.9954,0.027738968,60,7.52688172,58.06451613,173,4.428571429,0.01947282,0.008622882,0.000104604,2.258272873,0.690518051,0.305772637,-4.753335959,22.69764285,53.13798533,0.427145341,3789.096931,2.341123511,4.285505825,497.6103472,0.602150538,0.615384615,0.964285714,0.133333333,47.92358804,47.9270401,47.9206095,50.54945055,0.461309017,0.538690983,15.42511154,16.66871782,0.537316002,0.462683998,38.95112198,36.1449247,0.525576588,0.474423412,29.62367271,28.14517486,0.653825516,1.817077277,11.73710523,8.062103703,8.898573821,3.43E-05,2.74E-05,3.43E-05,79398,86931,0.243970893,0.154503958,0.061237667,2.35E-10,2.35E-10,0
38.78145965,43.85871586,1547.625899,121.5620122,44.00786416,0.078547414,0.028339352,1562,126.021,0.080679257,177,19.42446043,61.8705036,520,4.964285714,0.004731436,0.000647151,5.62E-06,7.311176044,0.878762541,0.120194417,-7.342930661,31.11825918,168.404208,0.184783145,16463.346,5.411749002,4.923488216,3645.445219,0.474820144,0.481751825,0.772727273,0,51.44282925,51.56081457,51.32718458,51.82481752,0.59021303,0.40978697,23.91247727,19.92504201,0.507539859,0.492460141,119.9742426,118.1785023,0.510270791,0.489729209,86.50325268,84.74422017,0.74650372,0.961853352,14.64693224,8.88633577,12.67025859,5.53E-05,4.61E-05,4.61E-05,108306,110195,0.230760461,0.210329481,0.013893253,2.55E-10,2.12E-10,3
36.85118919,43.6642146,1628.39819,81.51388502,43.76262909,0.05005771,0.026814212,1647,69.6822,0.042308561,101,21.26696833,63.80090498,439,5.525,0.005074225,0.00166416,8.78E-06,3.049120677,0.752053145,0.24664591,-6.398434685,30.94485179,111.262027,0.278125904,10816.46246,3.595493937,4.741055357,1600.167773,0.561085973,0.558139535,0.916666667,0.039473684,49.53320886,49.53550883,49.53228716,46.97674419,0.462521815,0.537478185,21.04582953,22.68717176,0.509985114,0.490014886,79.45582064,77.8846019,0.506577081,0.493422919,58.12122837,57.3616552,0.96438657,1.33638515,14.99455639,6.842081451,9.473160296,2.76E-05,3.31E-05,3.31E-05,107956,78734,0.20931358,0.182046199,0.023447483,7.59E-11,9.11E-11,1
42.73865842,41.71922611,1404.02459,134.6056862,41.7596135,0.095871317,0.029714028,1386,137.1405,0.09894697,187.75,26.2295082,61.47540984,570,5.80952381,0.002237555,0.000572033,3.10E-06,3.911582182,0.795520984,0.203375756,-7.466313655,29.52850589,186.950591,0.157948182,17342.75895,6.331190333,4.946088298,4734.479099,0.418032787,0.421487603,0.676470588,0,47.1033977,47.30613678,46.88328896,52.47933884,0.460566511,0.539433489,20.06147577,21.71129119,0.456905827,0.543094173,126.3688959,137.7730947,0.45699512,0.54300488,90.47530232,98.62252735,0.933621008,1.05303034,13.19726918,8.4815053,10.08543413,4.05E-05,3.47E-05,3.47E-05,133050,114238,0.1684052,0.143775089,0.021884661,1.17E-10,1.00E-10,2
43.68750974,69.31572228,1373.939759,144.0933011,69.44641642,0.104875996,0.050450336,1399,143.8122,0.102796426,204,21.68674699,55.42168675,963,4.882352941,0.010347984,0.004078507,0.000185673,2.537199019,0.708176005,0.279117247,-5.502024295,49.10603198,197.5527698,0.248571721,30476.69285,4.022983774,5.190937948,3179.00635,0.514056225,0.514285714,0.753968254,0.117647059,48.40198064,48.95419219,47.97979073,50.20408163,0.304773246,0.695226754,27.11331,40.95032539,0.516160085,0.483839915,141.9303689,137.4149455,0.503855831,0.496144169,102.1747552,101.3898328,0.904601568,0.942468385,10.40409969,8.879638518,9.307058101,3.78E-05,3.20E-05,3.49E-05,158514,152934,0.057151048,0.031233946,0.003236583,1.10E-10,1.02E-10,2
44.56175007,36.57990276,1346.260355,118.4934332,36.62234097,0.088016729,0.027171492,1325,97.8516,0.073850264,135,14.20118343,59.76331361,508,5.451612903,0.003596129,0.000512969,5.63E-06,7.010419323,0.873965935,0.124666713,-7.575294742,25.89590564,164.1563078,0.157751511,13354.83578,6.339083486,4.832608662,4162.40216,0.402366864,0.403614458,0.641791045,0.075,46.27584822,46.58413679,45.94506121,51.80722892,0.478084867,0.521915133,17.93810049,18.74234375,0.51899366,0.48100634,118.260198,113.8499845,0.517996797,0.482003203,84.57910464,81.58766576,0.854374315,1.058120927,11.08566467,9.564769993,10.29186434,4.81E-05,4.81E-05,4.81E-05,105865,106893,0.08782023,0.074838201,0.002646039,2.10E-10,2.10E-10,2
37.40604012,39.06905815,1604.194595,55.75962554,39.17438366,0.034758642,0.024354314,1610,56.3388,0.034993043,72,21.08108108,61.08108108,370,5.441176471,0.016613102,0.006189513,2.97E-05,2.684072505,0.727612441,0.271085241,-5.084898841,27.70047234,73.9886267,0.374388248,6438.756684,2.67102401,4.515772124,790.5015934,0.567567568,0.571428571,0.923076923,0.046153846,50.49370106,50.49491761,50.49180642,48.35164835,0.507313356,0.492686644,19.73056213,19.44404892,0.459864092,0.540135908,50.17411447,54.37715621,0.465697608,0.534302392,38.12306942,40.83470433,0.938231322,1.603449871,13.22987743,8.760074798,10.50323204,5.03E-05,5.70E-05,5.70E-05,137201,132985,0.276866689,0.276806833,0.020100536,1.69E-10,1.91E-10,0
36.22343535,40.04439026,1656.534392,49.84235928,40.1512033,0.030088334,0.024173594,1659,48.9258,0.029491139,67,15.34391534,57.14285714,278,5.25,0.027187008,0.008229591,2.95E-05,3.303567434,0.766995876,0.232172005,-4.800018986,28.39118812,64.69844937,0.438823317,5770.684251,2.278821481,4.468197422,589.7448648,0.529100529,0.52972973,0.836734694,0.015625,49.84445213,49.84770271,49.84140926,42.16216216,0.413337402,0.586662598,18.25312221,21.74598125,0.550704202,0.449295798,48.01236147,43.36706696,0.528523215,0.471476785,36.3205405,34.30444721,0.895460264,1.676129287,12.81692042,8.743960201,9.480927407,1.59E-05,1.59E-05,1.27E-05,128410,142753.5,0.242595362,0.101431436,0.095479868,5.03E-11,4.02E-11,1
38.27733052,35.78680835,1568.010753,70.46298668,35.91511333,0.044937821,0.022823063,1560,66.717,0.042767308,86,10.75268817,50.53763441,411,4.227272727,0.005373561,0.000915303,5.95E-06,5.8708034,0.853649407,0.145405892,-6.996255872,25.39582018,93.02812458,0.272990779,7422.09283,3.663127393,4.577496492,1363.095486,0.516129032,0.532608696,0.836734694,0.12,54.11572942,54.49041086,53.77036213,44.56521739,0.584770505,0.415229495,19.4569121,16.39552338,0.586588913,0.413411087,71.24939666,59.81434142,0.586462354,0.413537646,52.22570226,43.85526552,0.561668363,0.935460648,13.47828493,7.654496571,10.21584587,4.07E-05,4.07E-05,4.75E-05,77076,77938,0.225594638,0.243961821,0.017387862,2.77E-10,3.23E-10,3
35.68285836,34.79161954,1681.573171,69.96189977,34.92448202,0.041605029,0.020689923,1699,63.0105,0.037086816,95,17.07317073,63.41463415,291,4.315789474,0.002992498,0.00200318,6.77E-06,1.493873305,0.598206876,0.400440167,-6.213019114,24.69533807,94.70965133,0.260747851,7347.82977,3.835122689,4.573129196,1452.892531,0.548780488,0.567901235,0.847826087,0,54.11218895,54.28108383,53.94882059,39.50617284,0.505849236,0.494150764,17.60628439,17.40150856,0.646188278,0.353811722,76.13314586,56.33526566,0.637213899,0.362786101,55.25503212,41.69217347,0.680751035,1.678430784,11.25931856,8.370212597,9.115193009,2.85E-05,2.85E-05,3.56E-05,52458,38564,0.094730994,0.040979003,0.01484953,2.03E-10,2.53E-10,3
44.44590879,562.1300156,1392.684615,471.4870181,563.2097306,0.338545434,0.40363052,1694,202.3749,0.119465702,731.75,60.76923077,77.69230769,1572,2.626262626,0.083478628,0.142223047,0.007128808,0.586955696,0.358538222,0.610843757,-1.950358699,398.2494197,535.1892844,0.744128164,669595.3572,1.343854524,6.532782544,2876.866164,0.557692308,0.562015504,0.8,0.126760563,49.60567515,51.10574206,48.19468792,41.86046512,0.398314851,0.601685149,251.3477817,308.9203034,0.630217503,0.369782497,424.8666473,325.447234,0.547568974,0.452431026,349.0611518,317.2913929,0.732583171,0.565920683,2.509719139,2.29196034,2.400253074,4.95E-05,3.30E-05,3.58E-05,190026,199082,0.008020778,0.006810979,4.14E-05,1.36E-10,9.84E-11,1
35.47539198,22.77921985,1691.212389,34.80851993,22.8795669,0.020581992,0.013469166,1690,35.5824,0.021054675,44,0.884955752,38.9380531,181,4.346153846,0.004319365,0.002667822,1.41E-05,1.619060822,0.616940827,0.38104858,-5.926493007,16.17829691,46.64113109,0.346867594,2370.564345,2.882944438,4.081821858,537.8551579,0.592920354,0.603603604,0.895522388,0.09375,49.16584887,49.16201599,49.17001064,53.15315315,0.492325693,0.507674307,11.35265973,11.5282653,0.441390808,0.558609192,30.98708448,34.85965726,0.446861858,0.553138142,23.33540537,25.96244023,0.763306751,2.079441542,5.976737559,4.350224414,5.20994675,6.22E-05,5.70E-05,5.70E-05,105436,109055,0.13837295,0.125504247,0.0072697,3.22E-10,2.96E-10,0
36.91750197,23.09860287,1625.438202,47.09973824,23.2061206,0.02897664,0.014210693,1630,47.4432,0.029106258,71,1.123595506,35.95505618,209,3.708333333,0.003558762,0.001395863,5.99E-06,2.549505855,0.717403296,0.281389154,-6.574242243,16.40920524,63.88954189,0.256837109,3293.572243,3.89351836,4.224637304,995.0204175,0.550561798,0.568181818,0.82,0.095238095,52.87990196,52.77264441,52.98972043,48.86363636,0.535972909,0.464027091,12.02607321,11.18984556,0.542960115,0.457039885,47.07753753,43.19234913,0.542526856,0.457473144,34.35783009,31.54989435,0.609540698,1.115561847,8.734989899,5.302214779,6.820880318,6.85E-05,5.48E-05,5.48E-05,70414,76359,0.218532348,0.245615741,0.019213248,4.69E-10,3.75E-10,0
41.60278314,566.3764655,1485.347222,452.2910802,568.3670317,0.304501919,0.381309136,1766.5,54.8562,0.031053609,636.25,50,71.52777778,1253,1.5,0.058668484,0.123494484,0.006012373,0.475069674,0.311775623,0.656273469,-2.091558791,401.8961823,499.274437,0.804960464,630380.9553,1.242297038,6.506573194,2480.988617,0.534722222,0.539007092,0.763157895,0.023809524,49.93471504,52.10021661,47.96129479,41.13475177,0.366358018,0.633641982,243.257869,319.9160431,0.66079461,0.33920539,405.8565661,290.7841316,0.545025135,0.454974865,334.5847748,305.697306,0.49932423,0.452032056,2.948495997,2.081209196,2.4079233,4.15E-05,3.69E-05,3.69E-05,99784,108366,0.021438103,0.014938899,0.00038076,1.91E-10,1.70E-10,3
43.55053934,560.6629687,1421.822835,480.1484332,561.7742918,0.3376992,0.394326884,1735,141.5883,0.081607089,712,56.2992126,78.74015748,1933,2.466019417,0.036627656,0.079931116,0.006071792,0.458240268,0.298682929,0.651804194,-2.526590066,397.2344112,551.4291516,0.720372527,688155.2973,1.388170652,6.544656567,3061.911059,0.582677165,0.585657371,0.87755102,0.109589041,49.99373368,51.07913273,48.99405776,43.42629482,0.428052603,0.571947397,259.8935107,300.4172792,0.577843976,0.422156024,419.1746559,358.2830126,0.526668552,0.473331448,348.7492144,330.6185557,0.725372278,0.434269215,2.627039818,1.8725291,2.18389666,2.48E-05,3.31E-05,3.31E-05,106586,93806.5,0.009109772,0.005573528,0.000118723,6.83E-11,9.11E-11,1
47.94681885,566.0020612,1298.407547,453.1200422,567.0619466,0.348981368,0.435920187,1531,370.65,0.242096669,736,67.16981132,86.03773585,1438,3.785714286,0.077515509,0.120297165,0.012243996,0.644366883,0.369021889,0.572689098,-2.117790218,400.9733478,498.9265629,0.803672078,628495.2586,1.244288593,6.505272116,2483.234524,0.539622642,0.540229885,0.843971631,0.144927536,49.49641217,50.79773538,48.26310199,44.06130268,0.410228307,0.589771693,256.8265493,307.9420993,0.571039319,0.428960681,377.0245523,326.7724011,0.507930923,0.492069077,322.5735493,317.4968808,0.846540838,0.829662367,2.455114553,2.270043404,2.355090466,3.47E-05,2.89E-05,2.89E-05,177960,134980,0.007899529,0.007359683,3.37E-05,1.00E-10,8.37E-11,2
36.16570628,70.67783314,1659.451456,88.77895308,70.84888304,0.053498976,0.042591082,1680,61.5279,0.03662375,93.25,13.59223301,51.94174757,630,4.12,0.028638995,0.007077976,0.000128718,4.046212281,0.798952263,0.197456833,-4.95076722,50.09772564,115.3233232,0.434411048,18150.35113,2.301967239,4.965855141,1061.882047,0.466019417,0.454545455,0.733333333,0,49.22032919,49.24154623,49.20224598,45.95959596,0.497585074,0.502414926,35.33977235,35.5108724,0.610518736,0.389481264,90.10868395,71.97148007,0.592589225,0.407410775,68.44148754,56.7490793,0.920878657,1.129608389,3.955587873,3.090881636,3.318722894,2.91E-05,3.78E-05,3.78E-05,122476,120421,0.058052823,0.030245479,0.003184051,8.47E-11,1.10E-10,2
43.45738097,482.9295299,1416.025,407.290633,484.4060253,0.28762955,0.341045907,1627.5,140.847,0.086541935,580.25,50.625,75,1218,2.222222222,0.05408706,0.117890048,0.008178125,0.458792414,0.300224751,0.654380372,-2.138002886,342.5267853,460.1942477,0.744309141,495205.657,1.343527769,6.401755707,2473.135004,0.53125,0.537974684,0.811764706,0.021276596,51.10644484,53.15240054,49.27174427,40.50632911,0.37422588,0.62577412,209.5586985,270.986454,0.661538262,0.338461738,374.2990026,267.7293452,0.559098617,0.440901383,303.3270442,269.3628227,0.593656713,0.53988847,3.096130654,2.525856468,2.726846389,3.06E-05,2.62E-05,2.62E-05,79558,77414,0.029351465,0.018655321,0.000878472,1.34E-10,1.15E-10,2
34.66632276,34.12310017,1731.011628,48.2172215,34.22085235,0.027854938,0.019712808,1736,52.6323,0.030318145,70,14.53488372,50,223,4.3,0.005504265,0.002736202,7.77E-06,2.011643714,0.667325992,0.331731702,-5.901184276,24.19779675,63.8522603,0.37896539,4854.024597,2.638763394,4.393072083,673.9640285,0.575581395,0.572289157,0.852631579,0.055555556,50.79581628,50.79599018,50.79512629,41.56626506,0.450755864,0.549244136,16.2471717,17.93452143,0.567523351,0.432476649,48.1025548,41.99113439,0.552857882,0.447142118,35.90143706,32.28701307,0.87807482,1.539394069,10.88421537,4.280052258,7.548751533,6.03E-05,6.37E-05,6.70E-05,111986,104394,0.240465479,0.259560632,0.0277874,2.02E-10,2.25E-10,0
46.51153646,550.33126,1332.446809,458.7658383,551.4922802,0.344303304,0.413023061,1578,345.4458,0.218913688,821.5,68.5106383,82.55319149,1454,2.831325301,0.073809766,0.094214674,0.008309752,0.783421122,0.418578863,0.534296117,-2.362179335,389.9639311,517.8350949,0.75306586,634403.8248,1.327905105,6.509335903,2750.543464,0.574468085,0.579399142,0.82962963,0.203389831,50.56685705,51.45370724,49.77511614,48.06866953,0.446641464,0.553358536,260.6265602,290.0964802,0.513863165,0.486136835,371.2062022,361.0528229,0.489535792,0.510464208,320.7181383,327.5019914,0.86369756,0.810105085,1.929837797,1.861178696,1.88538928,4.76E-05,2.85E-05,3.17E-05,172673,182376.5,0.001825368,0.001233136,2.00E-06,1.51E-10,1.01E-10,1
45.51986411,563.0635374,1364.317757,481.1876933,565.61554,0.352694738,0.412707036,1648,274.281,0.166432646,728.5,63.55140187,78.5046729,1488,2.972222222,0.054631548,0.062415137,0.005413706,0.875293234,0.446116064,0.509676125,-2.773947445,399.9505839,547.4919305,0.730514116,687913.6552,1.368898941,6.54450404,2997.844495,0.560747664,0.575471698,0.852459016,0.09375,51.46043672,51.74130802,51.16153561,48.11320755,0.489581001,0.510418999,279.9064895,285.801238,0.529397292,0.470602708,398.3534478,375.582141,0.515538845,0.484461155,344.2623362,333.7246562,0.692286537,0.745515166,2.51295108,2.153538531,2.285731323,4.75E-05,4.07E-05,4.07E-05,73210,74529,0.008238425,0.004320318,5.20E-05,3.23E-10,2.77E-10,3
39.79610533,530.9552391,1547.202247,435.3710325,533.9925425,0.281392451,0.343171192,1756,128.9862,0.073454556,556,49.43820225,75.28089888,1486,1.893617021,0.039253951,0.084994658,0.005270654,0.461840219,0.303074233,0.656231789,-2.465166876,377.5897479,489.3049374,0.771685955,580429.7509,1.295863937,6.470719775,2536.290491,0.528089888,0.540229885,0.85106383,0.137931034,50.35664785,51.85413917,49.0165329,41.37931034,0.396816238,0.603183762,237.8588638,293.257713,0.633918933,0.366081067,389.5798263,296.0521588,0.545422322,0.454577678,322.7609643,294.6582486,0.539881208,0.580943182,2.198465628,2.081282416,2.142145901,4.98E-05,2.85E-05,2.85E-05,61108,66490,0.003047627,0.001955596,1.33E-05,3.54E-10,2.03E-10,3
35.09343539,158.4377529,1711.366667,192.9769152,158.8086131,0.112761876,0.092579665,1716,178.6533,0.104110315,240.75,66.66666667,85.71428571,979,5.25,0.040508484,0.007841147,5.11E-05,5.166142398,0.836938647,0.162004564,-4.848370105,112.2946473,248.2934275,0.452265887,87593.95817,2.211088716,5.649444262,2195.995183,0.461904762,0.45320197,0.695652174,0.113207547,49.18393957,49.11458652,49.26202212,58.12807882,0.625355313,0.374644687,88.80728108,68.73769121,0.355246097,0.644753903,147.9891517,199.371104,0.401118086,0.598881914,122.039998,149.1202657,0.971981006,1.566530411,8.783985232,6.976835063,7.769102712,3.03E-05,3.03E-05,3.03E-05,109566,112015,0.112629399,0.068236923,0.006701456,8.32E-11,8.32E-11,1
32.05666502,131.1030507,1872.04902,154.0461148,131.6714182,0.082287437,0.070031847,1848,114.1602,0.061775,177,70.58823529,86.2745098,855,3.517241379,0.009053625,0.003897774,3.37E-06,2.322767761,0.69886448,0.300875745,-5.547349554,93.10575271,195.0654544,0.477305185,57056.71343,2.095095616,5.463276862,1634.723113,0.607843137,0.616161616,0.93442623,0.03030303,47.70164788,47.59708338,47.80982455,50.50505051,0.491144817,0.508855183,65.29249574,66.45927324,0.461990405,0.538009595,132.5857475,143.078828,0.467405687,0.532594313,104.5038048,111.5535433,0.60518514,1.893542164,6.380413765,5.97805542,6.178072304,2.07E-05,5.18E-06,5.18E-06,87475,79747,0.002364282,0.000729855,1.11E-05,1.07E-10,2.69E-11,0
36.98325434,84.27565701,1623.337079,130.0886013,84.68357724,0.08013653,0.051915069,1644,108.2298,0.065833212,142,50.56179775,80.8988764,565,4.238095238,0.012280498,0.002367533,7.51E-06,5.187044453,0.837942503,0.161545271,-6.045906843,59.88033172,171.9452197,0.348252379,32346.26771,2.871480747,5.216794287,1974.949551,0.471910112,0.488636364,0.674418605,0.074074074,52.65035678,52.88945118,52.42694161,45.45454545,0.569006896,0.430993104,45.20928345,39.34631093,0.503856919,0.496143081,122.0516681,121.1137848,0.510914803,0.489085197,92.03393125,90.04632435,0.687802295,1.619909212,7.42329411,6.219347528,6.596207527,1.37E-05,1.37E-05,6.85E-06,17269,17269,0.069997225,0.069997225,0.002562557,9.39E-11,4.69E-11,0
40.84376215,60.56447121,1469.006849,138.8979033,60.76354208,0.09455225,0.041228175,1483,163.086,0.10997033,207,43.15068493,72.60273973,572,5.034482759,0.002702303,0.000864038,7.77E-06,3.127527589,0.756076398,0.241748914,-7.053893534,42.96631265,191.5969923,0.224253586,25862.27018,4.459237493,5.119636754,3417.505967,0.5,0.503496503,0.75,0.073170732,51.17297908,51.0933063,51.2498223,48.95104895,0.491514812,0.508485188,30.12825593,30.64395672,0.509204719,0.490795281,136.7208964,134.2266887,0.508357408,0.491642592,98.99574568,97.35465072,0.795560658,1.264597426,12.14278252,6.310845744,10.08158571,5.99E-05,3.69E-05,3.69E-05,98928,95422.5,0.097327982,0.089485414,0.002720472,2.76E-10,1.70E-10,3
33.78109207,126.0587832,1776.852217,195.698009,126.3423845,0.110137471,0.070945002,1748,160.1208,0.091602288,215,65.51724138,85.22167488,1010,4.720930233,0.011667456,0.001251615,3.06E-06,9.321919598,0.902905216,0.096858293,-6.683320414,89.33755686,259.6872555,0.344019797,72884.39965,2.906809461,5.569604691,3019.445485,0.487684729,0.487437186,0.731958763,0.029411765,48.52713178,48.66818815,48.36844533,49.24623116,0.560290908,0.439709092,66.88712925,59.25411168,0.418385734,0.581614266,167.972842,198.0469516,0.433409173,0.566590827,127.8451479,146.1739457,0.925121238,1.320167277,7.235249936,6.516076586,6.837263047,1.38E-05,1.10E-05,1.10E-05,212209,211787,0.030506429,0.015768827,0.001056668,3.80E-11,3.04E-11,1
36.02151531,130.7686096,1665.946602,167.0650875,131.0633,0.100282378,0.078495079,1683.5,146.0361,0.08674553,212.75,57.2815534,75.72815534,1141,3.961538462,0.045373746,0.003291157,1.28E-05,13.78656325,0.932125567,0.067611162,-5.716516056,92.67574822,216.2540862,0.428550276,62962.25821,2.333448506,5.506050406,2018.471097,0.446601942,0.442211055,0.647727273,0.054545455,48.56224812,48.37655148,48.72758217,55.27638191,0.595777085,0.404222915,71.54713584,58.9333081,0.385310941,0.614689059,134.2363061,169.547763,0.417977463,0.582022537,107.5601658,126.924345,0.871701052,1.309151485,8.039645494,7.436265874,7.667667305,3.76E-05,2.32E-05,2.32E-05,192271,198624.5,0.047913411,0.040782627,0.001548372,1.09E-10,6.70E-11,2
35.95258514,97.79858754,1669.565854,166.3218054,98.03531651,0.099619793,0.058577257,1692,145.2948,0.085871631,219,53.17073171,75.6097561,913,4.659090909,0.017960452,0.002439702,9.02E-06,7.361741275,0.880018386,0.119539434,-6.015879536,69.3214371,224.7061555,0.308498167,48936.44307,3.241510345,5.39660251,2913.54931,0.43902439,0.437810945,0.727272727,0,50.60812204,50.50343354,50.70305339,54.72636816,0.605223735,0.394776265,53.9315156,43.5572213,0.407004635,0.592995365,143.3555948,173.0376541,0.424231248,0.575768752,108.3038202,126.1730187,0.937749922,1.432556079,10.9376391,7.880493067,8.740084992,4.36E-05,4.07E-05,3.78E-05,139522,126427,0.179700774,0.191133738,0.013172642,1.27E-10,1.10E-10,2
35.89393246,99.48456717,1671.688889,149.9774345,99.84248396,0.089716116,0.059511413,1704,121.5732,0.071345775,181.5,63.7037037,86.66666667,737,4.35483871,0.025219608,0.003288291,1.45E-05,7.669519282,0.884205123,0.115288207,-5.717387435,70.59929746,199.8548539,0.353252854,44326.65428,2.830833466,5.353635063,2263.023235,0.444444444,0.45112782,0.75,0.024390244,51.08958838,50.99425176,51.18061332,51.87969925,0.556745402,0.443254598,52.686047,47.01039719,0.375066929,0.624933071,122.3965248,157.9906749,0.395228451,0.604771549,94.22507316,116.5569191,0.77815659,1.642227735,9.546814847,7.239407027,7.874267949,3.50E-05,3.93E-05,3.50E-05,87011,73292,0.159830633,0.118984523,0.033054342,1.53E-10,1.53E-10,2
35.21014657,114.7047731,1704.649425,184.5815078,115.0288221,0.108281213,0.067289362,1709,194.9619,0.11407952,266.5,60.34482759,82.75862069,919,4.971428571,0.016910902,0.001751102,3.77E-06,9.657292423,0.905984297,0.093813489,-6.347510077,81.33766017,248.4010779,0.327444876,63473.87668,3.053949147,5.509565134,3034.41704,0.482758621,0.485380117,0.710843373,0.081632653,49.18926016,49.13046354,49.25818516,52.63157895,0.55827208,0.44172792,60.77826168,54.0633242,0.416876183,0.583123817,160.3825145,189.6853831,0.430570488,0.569429512,121.2776732,139.4693292,0.848014371,1.540445041,10.68793819,6.668558144,8.096884518,3.35E-05,3.35E-05,3.35E-05,167912,175106,0.124608391,0.119787893,0.00517908,1.12E-10,1.12E-10,0
35.11652113,151.2639059,1709.63388,196.2776749,151.681154,0.114806847,0.088477368,1711,186.8076,0.109180362,251.5,66.66666667,81.96721311,964,4.815789474,0.025494788,0.002892599,5.58E-06,8.813800124,0.897926208,0.101877305,-5.845599913,107.2547726,256.4398703,0.418245308,86407.62089,2.390941346,5.643522158,2452.530754,0.393442623,0.394444444,0.605633803,0.019230769,49.95354119,49.84145388,50.06448687,55,0.646719737,0.353280263,86.25311268,63.7494448,0.36830501,0.63169499,155.6285825,203.8164649,0.409756757,0.590243243,125.8170401,151.0052037,0.917163629,1.526056303,7.425374256,6.192187272,6.554662631,6.34E-06,6.34E-06,3.17E-06,18009,18009,0.042732478,0.042732478,0.002114267,2.01E-11,1.01E-11,1
37.70551509,103.4842983,1591.901099,148.7030639,104.0640372,0.09341225,0.065006738,1589,174.9468,0.110098678,231,64.83516484,82.41758242,609,5.055555556,0.0207067,0.002891031,1.98E-05,7.162393197,0.876752074,0.122410492,-5.846142149,73.5843864,198.2549992,0.371160307,45831.03792,2.694253616,5.368129803,2136.596994,0.417582418,0.433333333,0.58974359,0.04,50.02704164,50.01395533,50.03753414,53.33333333,0.530133533,0.469866467,53.5769949,50.43975158,0.496626435,0.503373565,139.7137223,140.6595908,0.500683475,0.499316525,105.8074161,105.6628814,0.581287385,1.840549633,9.562047314,7.347957402,8.458958027,5.43E-05,3.40E-05,4.07E-05,72755,72677,0.079429607,0.080564179,0.000897472,3.69E-10,2.77E-10,3
34.43992074,142.1414969,1743.050633,164.7267278,142.8332944,0.094504844,0.081547543,1760,161.6034,0.091820114,196,74.6835443,87.34177215,758,4.157894737,0.04216544,0.008201524,2.02E-05,5.141171354,0.836829622,0.162770226,-4.803435298,100.998391,205.3873658,0.49174588,65168.54922,2.033570671,5.521008163,1670.678893,0.582278481,0.586666667,0.840909091,0.142857143,53.66424725,53.58874896,53.74404547,46.66666667,0.585993776,0.414006224,77.43803556,65.08954871,0.510400934,0.489599066,146.7335603,143.7123248,0.525158745,0.474841255,117.3187689,111.556895,0.598091697,2.772588722,7.14241871,5.938823718,6.321233281,3.56E-05,2.13E-05,2.13E-05,72886,70608.5,0.031099504,0.012985382,0.001517209,2.53E-10,1.52E-10,3
35.21824617,73.40161558,1703.422535,77.82685099,73.5654681,0.045688518,0.043090668,1702,77.0952,0.045296827,106,50.70422535,79.81220657,475,5.461538462,0.015284995,0.011596817,5.26E-05,1.318033647,0.567490207,0.430558209,-4.457024646,52.01864135,95.7433996,0.54331308,15646.51863,1.840559405,4.901387832,704.8856586,0.61971831,0.622009569,0.946153846,0.042857143,48.98187335,48.91227838,49.04610433,45.45454545,0.429560861,0.570439139,34.09806043,39.29361464,0.542351794,0.457648206,70.50978404,64.77012369,0.516640059,0.483359941,55.3818895,53.56844721,0.929800583,1.908059925,8.315205597,6.050964139,6.89773134,2.75E-06,2.75E-06,2.75E-06,0,0,0.052250821,0.052250821,0,7.57E-12,7.57E-12,1
38.08685843,67.881764,1574.065574,71.1041301,68.1309022,0.04517228,0.043125118,1582,63.0105,0.039829646,81.25,42.62295082,83.60655738,512,4.88,0.022460941,0.024408625,0.000203106,0.920205072,0.477154574,0.518530693,-3.712818722,48.17582295,82.05613882,0.58710809,12419.09908,1.703263874,4.801060202,559.0530274,0.598360656,0.608333333,0.931506849,0.024390244,47.98742138,47.69641557,48.23679445,47.5,0.344153096,0.655846904,28.27587311,39.03385283,0.515692942,0.484307058,58.92596059,57.1046503,0.471689068,0.528310932,46.2157648,48.91105577,0.764463128,1.743968805,9.634377285,7.084552984,8.030846587,3.11E-05,2.07E-05,2.07E-05,74179,50521,0.076351522,0.026744549,0.011007616,1.61E-10,1.07E-10,0
35.46741611,73.91500911,1692.294118,88.05758715,74.35672496,0.052034446,0.043677401,1680,80.0604,0.047655,126,50.58823529,82.35294118,466,3.863636364,0.026750891,0.009458608,3.36E-05,2.828205974,0.738096527,0.260976935,-4.660830095,52.57814445,113.6113596,0.462789501,18766.22352,2.160809605,4.980346995,981.9700681,0.623529412,0.638554217,0.943396226,0.086956522,49.52774498,49.52456461,49.53151991,51.80722892,0.467221438,0.532778562,35.94012759,38.37881883,0.438979318,0.561020682,75.27379062,85.09640103,0.443961329,0.556038671,58.98235467,66.00882972,0.654661612,1.878770846,8.204040983,7.265675753,7.740370543,3.43E-05,2.06E-05,2.06E-05,47775,51324.5,0.0225722,0.024887115,0.000263325,2.35E-10,1.41E-10,0
32.60451236,102.5988813,1840.646552,83.48113604,103.0461317,0.045354246,0.055740675,1843,91.1799,0.04947363,119.75,63.79310345,87.93103448,472,4,0.051136853,0.042288932,3.56E-05,1.209225469,0.547144176,0.452474902,-3.163229887,72.86461852,93.11776948,0.782499612,21315.6771,1.277955905,5.035669243,476.0016134,0.594827586,0.608695652,0.928571429,0.026315789,50.35896369,50.35816733,50.35918633,45.2173913,0.448820413,0.551179587,48.8158013,54.09668894,0.656255161,0.343744839,75.43431142,54.59472185,0.577475953,0.422524047,63.53470624,54.3462759,0.602621859,1.734601055,9.087810986,6.26067175,7.337357583,4.15E-05,3.69E-05,3.69E-05,98044,105043,0.084612865,0.053463062,0.003841224,1.91E-10,1.70E-10,3
35.07528889,77.77311324,1711.028436,86.72287086,77.95677626,0.050684646,0.045454016,1717,83.0256,0.048355038,105.5,54.50236967,76.77725118,486,5.702702703,0.019851888,0.014186632,4.40E-05,1.399337668,0.582466123,0.416244154,-4.255455198,55.12376514,109.622759,0.502849642,18984.07646,1.988666026,4.985359584,872.0122258,0.616113744,0.622009569,0.946153846,0.045454545,50.46142209,50.45047235,50.47180715,44.49760766,0.474549251,0.525450749,37.97446258,39.95921964,0.551070444,0.448929556,81.37748945,73.44966639,0.535625882,0.464374118,63.49943149,59.12525995,0.922333676,1.786368621,7.759171277,5.531713879,6.336071576,1.65E-05,8.27E-06,8.27E-06,223558,221004,0.009636133,0.004143314,0.000107882,4.56E-11,2.28E-11,1
34.89614881,77.25751496,1719.57,103.0166357,77.44457731,0.05990837,0.044928392,1708,90.4386,0.05295,122.5,47.5,80,608,4.87804878,0.017167739,0.006812976,2.20E-05,2.519859078,0.715241144,0.283841724,-4.988926259,54.76158578,134.6728298,0.406626829,23168.9245,2.459257303,5.071875984,1324.780561,0.59,0.593908629,0.923076923,0.048387097,49.09723373,49.13179168,49.06263161,50.76142132,0.508390471,0.491609529,39.04976105,38.39987637,0.423235181,0.576764819,87.61346693,102.2773264,0.43531955,0.56468045,67.82699841,77.25024917,0.978247735,1.799664649,10.42301757,5.586597164,6.945498813,2.89E-05,3.76E-05,3.76E-05,213931,219818,0.160755545,0.129741591,0.016282071,8.37E-11,1.09E-10,2
34.49202155,80.11429972,1739.878173,106.1530248,80.31828153,0.061011757,0.046045925,1745,80.0604,0.045879885,111,48.73096447,80.20304569,676,4.925,0.018422108,0.006173509,1.66E-05,2.984058038,0.748493666,0.2508308,-5.087487927,56.79360152,139.2377193,0.407889484,24843.12266,2.451644474,5.102176294,1365.44554,0.61928934,0.621761658,0.933333333,0.070175439,49.63709333,49.61027281,49.66278063,46.63212435,0.512627714,0.487372286,40.66369262,39.64936059,0.594347376,0.405652624,107.3438273,88.6817074,0.582690431,0.417309569,81.16721366,68.6895808,0.943346072,1.452252329,8.464736181,5.969472144,6.74019407,2.33E-05,1.45E-05,1.75E-05,163380,97471,0.05133163,0.029426495,0.00325769,6.77E-11,5.08E-11,2
34.34634952,71.26650496,1747.407692,88.30011335,71.53032709,0.050532062,0.040784131,1742.5,86.7321,0.049774519,113,51.53846154,70,424,4.482758621,0.026281761,0.008436724,1.31E-05,3.115161966,0.756711048,0.242912265,-4.775161242,50.57957935,113.8564105,0.444240066,18091.83315,2.251035141,4.964452684,1025.179125,0.576923077,0.589147287,0.921052632,0.051282051,51.23406564,51.20180917,51.2659863,44.18604651,0.456491346,0.543508654,34.18035803,37.2961124,0.587054257,0.412945743,87.23617378,73.16510236,0.565527599,0.434472401,66.25121467,58.06949372,0.771303196,1.791759469,9.613882781,6.39351067,7.290371073,1.75E-05,1.31E-05,1.31E-05,47531,33233,0.248393535,0.1648054,0.060982324,7.64E-11,5.73E-11,2
36.41754449,64.85467209,1647.744444,71.01664941,65.02645198,0.04309931,0.039359667,1646,68.9409,0.0418839,92.5,51.66666667,80.55555556,368,5.625,0.016967658,0.01558171,7.18E-05,1.088947117,0.520142915,0.477656727,-4.161657471,45.98064515,88.8684131,0.517401443,12837.26062,1.932735237,4.815442468,687.0364537,0.577777778,0.581920904,0.902912621,0.016393443,51.05355124,51.03703376,51.07009723,44.63276836,0.489831942,0.510168058,32.18595025,32.84728026,0.580971735,0.419028265,67.73683917,57.52665005,0.561720783,0.438279217,53.02930687,46.84153758,0.90446776,1.934259532,10.59764701,7.503763636,8.605299251,3.35E-05,2.35E-05,2.35E-05,93681,76735,0.108267488,0.060367833,0.009148881,1.12E-10,7.87E-11,0
35.9909306,83.93373373,1667.718085,114.5951268,84.15639064,0.068713728,0.05032849,1676,122.3145,0.072980012,171.25,53.19148936,79.25531915,552,4.272727273,0.014978666,0.004572692,1.73E-05,3.275678037,0.765441599,0.233674247,-5.38765321,59.5075545,151.0675922,0.393913437,28241.85916,2.538628808,5.157863393,1534.018166,0.558510638,0.56684492,0.886792453,0.035714286,50.50908202,50.49318752,50.52273485,50.80213904,0.566013431,0.433986569,44.77125254,39.2034259,0.503943223,0.496056777,107.2413103,106.3988664,0.512281255,0.487718745,82.17409473,80.17988328,0.936404366,1.640209571,11.33490112,7.025535604,8.200142134,2.85E-05,2.54E-05,2.54E-05,122369,110340,0.224177481,0.171396013,0.028167585,9.06E-11,8.05E-11,1
32.80538685,86.31182288,1829.544304,95.56442282,86.86854066,0.052234003,0.047176678,1813,100.8168,0.055607722,129.5,51.89873418,78.48101266,430,4.157894737,0.031826606,0.009083082,6.27E-06,3.503943403,0.77785312,0.221993631,-4.701341681,61.42533417,121.2299333,0.50668455,23394.14981,1.97361455,5.076077377,957.0446408,0.493670886,0.512820513,0.85,0,50.42947127,50.44751764,50.41121283,47.43589744,0.443457774,0.556542226,40.90565642,45.8254027,0.554591087,0.445408913,90.28098915,80.90759988,0.531887561,0.468112439,70.08541121,65.74955228,0.536515295,2.261763098,7.272172359,6.739013321,6.959217353,4.75E-05,2.04E-05,2.72E-05,60869,62176.5,0.032389802,0.016076574,0.00100398,3.23E-10,1.84E-10,3
34.10130167,92.23409459,1760.025316,118.7603679,92.82534562,0.067476511,0.052404982,1745,133.434,0.076466476,180.5,45.56962025,74.6835443,511,4.647058824,0.028725715,0.005268228,1.09E-05,5.452633622,0.844754611,0.154925981,-5.246061289,65.63743135,155.537279,0.422004498,32072.73137,2.369642989,5.213106057,1474.27129,0.481012658,0.5,0.794871795,0,49.24840286,49.25541187,49.24591027,46.15384615,0.480382967,0.519617033,45.49589678,47.31731788,0.452768591,0.547231409,104.6580511,115.0588436,0.456943407,0.543056593,80.69443685,87.97006898,0.624386597,1.763588592,8.901456587,7.44596294,7.921208623,5.69E-05,6.40E-05,5.69E-05,75908,92579,0.099363746,0.057799241,0.006047753,4.05E-10,4.05E-10,3
37.3411433,82.71371129,1607.257778,98.60923622,82.8987953,0.061352471,0.051462629,1597,99.3342,0.062200501,129,57.77777778,80,547,4.891304348,0.06085997,0.007558865,2.70E-05,8.051469733,0.889169483,0.110435674,-4.88503427,58.61830031,126.5321982,0.463267857,23301.51438,2.158578422,5.074354257,1092.51869,0.422222222,0.426008969,0.663157895,0.024691358,50.12329224,50.11382972,50.13352453,46.6367713,0.50471286,0.49528714,41.64436773,41.25367221,0.532070226,0.467929774,92.29656355,86.55484693,0.527236293,0.472763707,71.59926329,67.79973082,0.974123235,1.869317704,21.09636567,17.94614529,18.86851986,1.93E-05,3.30E-05,3.03E-05,180510,179375.5,0.214367784,0.242993495,0.020170452,5.30E-11,8.32E-11,1
37.65781882,85.18861919,1593.533333,101.0887731,85.53803676,0.063436874,0.05345895,1579,85.9908,0.054459025,125.5,48.33333333,74.16666667,566,4,0.059066202,0.003056668,1.62E-05,19.3237199,0.950548325,0.049190753,-5.790429741,60.48452584,129.7759472,0.466068845,24659.73246,2.145605762,5.09895847,1113.79208,0.383333333,0.394957983,0.574468085,0,48.91142664,48.88111271,48.94605494,51.2605042,0.566116061,0.433883939,45.51471172,39.84610225,0.490645524,0.509354476,90.90298152,92.61989213,0.504116481,0.495883519,71.88512027,71.29570914,0.75937503,1.386294361,25.7642176,21.47011257,22.95072685,4.15E-05,3.63E-05,3.63E-05,81170,60579,0.189745198,0.168745782,0.017027128,2.15E-10,1.88E-10,0
37.65357162,86.00071059,1593.494505,102.5583166,86.42630816,0.064360634,0.053969882,1580,103.782,0.06568481,126.5,59.34065934,84.61538462,518,4.333333333,0.01396708,0.010076053,4.37E-05,1.386165774,0.579862975,0.418321521,-4.597593654,61.11262857,129.8259617,0.470727332,24925.41426,2.124372078,5.103612495,1103.194592,0.505494505,0.511363636,0.8,0.0625,47.74089069,47.86310063,47.61537324,52.27272727,0.484740502,0.515259498,42.57630295,43.89613635,0.482654746,0.517345254,90.19445504,93.37955139,0.483033486,0.516966514,70.52581546,72.96098754,0.608795491,2.583997552,25.31235246,20.7667131,21.96973134,4.11E-05,3.43E-05,3.43E-05,76499,82027,0.22255832,0.147609774,0.049191878,2.82E-10,2.35E-10,0
42.65843211,77.16995927,1404.181818,150.69024,77.25076828,0.107315333,0.054957241,1426,106.7472,0.074857784,142.25,35.71428571,69.48051948,983,4.529411765,0.01244738,0.000925164,9.27E-06,13.45423963,0.930171418,0.069135934,-6.985539418,54.62454211,199.4775705,0.273838016,34231.95892,3.651793915,5.241401862,2913.803912,0.376623377,0.373333333,0.607142857,0.024390244,44.863103,43.75373632,45.69791445,56,0.37692642,0.62307358,33.61131349,43.21423833,0.413184889,0.586815111,128.2231037,152.8075155,0.410645104,0.589354896,93.73069059,112.2889291,0.804472891,1.061084433,32.22680522,25.54833136,27.52765813,6.45E-05,7.37E-05,6.91E-05,106292,101374,0.373769513,0.381202145,0.014327443,2.97E-10,3.19E-10,3
36.76138402,103.8027412,1632.895928,125.2309976,104.0389468,0.076692578,0.063569723,1617,109.7124,0.067849351,146,59.2760181,81.4479638,709,5.390243902,0.049499187,0.005126729,1.13E-05,9.655121069,0.905961476,0.093832223,-5.273287485,73.56664478,161.4919452,0.455543741,37323.44197,2.195178884,5.278951798,1418.014832,0.393665158,0.397260274,0.563218391,0.028985507,50.22266205,50.16594762,50.28718739,50.68493151,0.631812165,0.368187835,58.47592487,44.63934624,0.456119881,0.543880119,109.0662464,119.0974486,0.486313979,0.513686021,87.50679941,89.93573677,1.003058235,1.482309014,20.0144298,17.35929928,18.27244152,1.65E-05,1.38E-05,1.38E-05,83725,63346,0.053138844,0.029875341,0.003313964,4.56E-11,3.80E-11,1
39.17228148,79.87307757,1532.419643,108.348188,80.05255768,0.070703993,0.052122196,1516,101.5581,0.066990831,142,48.21428571,76.33928571,526,5.743589744,0.047130145,0.004441506,1.79E-05,10.61129791,0.91355931,0.086093079,-5.416761728,56.60570638,142.4032415,0.397502935,25323.8634,2.515704698,5.110500072,1432.978015,0.388392857,0.389140271,0.523255814,0,49.8513092,49.82822111,49.87385765,50.67873303,0.538617042,0.461382958,41.54334001,38.44962775,0.439445932,0.560554068,94.40013158,106.617533,0.452977748,0.547022252,72.92884869,80.1425986,0.970832328,1.529242288,21.97284012,18.53777058,19.46026604,1.45E-05,2.32E-05,2.32E-05,123258,135824.5,0.293300992,0.240082156,0.089138655,4.19E-11,6.70E-11,2
38.75317334,86.12638054,1548.577273,111.3743469,86.32103462,0.071920432,0.055616457,1535,94.8864,0.061815244,135.25,50,80,772,5.365853659,0.026449585,0.002240743,7.87E-06,11.80393232,0.921646315,0.0780796,-6.100947553,61.03818894,145.1857818,0.42041437,27840.40824,2.378605662,5.151645709,1381.35889,0.4,0.398148148,0.534883721,0,49.45005945,49.41980841,49.49383666,50,0.617010406,0.382989594,47.94697951,37.77534995,0.394445773,0.605554227,91.18381124,112.9797495,0.427876854,0.572123146,72.8471011,84.23598062,1.022787953,1.488293529,24.65577543,19.42544456,20.68155732,2.04E-05,2.33E-05,2.33E-05,102497,62582.5,0.31674281,0.146612393,0.074730503,5.93E-11,6.77E-11,2
38.51702424,64.44345066,1557.627586,71.27791313,64.66586012,0.045760562,0.041372823,1556,77.0952,0.049547044,98,46.20689655,79.31034483,339,5,0.066973138,0.005754427,3.07E-05,11.63854172,0.920488705,0.079089694,-5.157785817,45.7256682,88.88072248,0.514461032,12767.84229,1.943781818,4.81308762,691.0589294,0.372413793,0.377622378,0.481481481,0.02,49.45377032,49.48643775,49.41850427,51.04895105,0.559350262,0.440649738,34.19943565,30.35454828,0.392080354,0.607919646,55.65383766,69.29959006,0.42708876,0.57291124,46.18956075,53.4968774,0.625851956,1.446918983,22.47247877,19.72583284,20.60678879,3.50E-05,2.62E-05,2.18E-05,103961,90816,0.226982572,0.150821494,0.0474898,1.53E-10,9.54E-11,2
40.65186286,52.27394188,1475.21393,71.93433815,52.37723598,0.04876197,0.035434821,1469,68.1996,0.046425868,83,28.35820896,65.67164179,512,5.911764706,0.01936355,0.004221129,1.07E-05,4.587291177,0.820650161,0.178896462,-5.467652533,37.03629874,92.70083935,0.399524956,10786.01743,2.502972556,4.739831228,928.1106274,0.472636816,0.466666667,0.714285714,0.028169014,47.81326151,47.61884678,47.98644161,46.66666667,0.412637943,0.587362057,23.80363555,28.39956295,0.449614576,0.550385424,62.15897688,68.77286681,0.444520117,0.555479883,47.06565347,52.6129375,0.980770814,1.625585899,27.36848631,23.37270917,24.78400811,7.04E-05,6.03E-05,5.70E-05,150679,154033,0.283667676,0.269133195,0.035032366,2.36E-10,1.91E-10,0
37.70628891,95.248306,1591.822335,113.8188854,95.49021432,0.071502254,0.059836016,1567,103.782,0.066229738,157,52.79187817,79.18781726,541,4.104166667,0.084291849,0.004453145,2.29E-05,18.92860946,0.949575436,0.050166149,-5.414144613,67.52177808,146.4162827,0.46116304,31058.68895,2.168430495,5.199153229,1269.974129,0.395939086,0.4,0.487179487,0.031746032,50.42346189,50.43395404,50.41147511,49.74358974,0.517385678,0.482614322,48.56911544,46.9086674,0.469492327,0.530507673,100.3237197,106.6437016,0.47789188,0.52210812,78.81563204,82.38113307,0.906955757,1.570217199,18.68455801,16.99498966,17.59517464,3.49E-05,2.85E-05,2.85E-05,137896,121142.5,0.048370623,0.026157234,0.002066307,1.11E-10,9.06E-11,1
42.67911513,58.09800892,1406.163462,100.8348752,58.37459529,0.071709213,0.041316682,1395,99.3342,0.071207312,133.25,30.76923077,68.26923077,479,4.952380952,0.025756087,0.001726876,1.70E-05,14.91484179,0.936587426,0.062795666,-6.361441099,41.27707218,137.0582185,0.301164517,17773.12683,3.320444288,4.95673395,1820.376715,0.394230769,0.396039604,0.55,0,51.04803493,51.05867801,51.03415707,52.47524752,0.560759814,0.439240186,30.91385881,27.35998223,0.373564109,0.626435891,83.76983392,108.4784319,0.38913454,0.61086546,63.138941,79.10796046,0.638136097,1.232143681,30.39878112,26.39494424,27.90946281,9.51E-05,8.15E-05,7.47E-05,73387,75458,0.260303981,0.220672096,0.023868412,6.46E-10,5.07E-10,3
42.18558139,44.87232748,1422.510204,52.54085203,45.10221305,0.036935308,0.031544468,1420.5,45.2193,0.031833369,60.25,23.46938776,67.34693878,298,4.666666667,0.067596297,0.007280794,6.43E-05,9.284193567,0.901988568,0.097153141,-4.922515413,31.89208069,67.04972638,0.475648186,6717.841252,2.102394228,4.534199847,563.859831,0.408163265,0.422680412,0.512195122,0.032258065,50.72463768,50.75238681,50.69688949,49.48453608,0.508284181,0.491715819,22.73877928,22.36510489,0.585493594,0.414506406,51.30481002,43.1680701,0.571246818,0.428753182,39.6814542,34.37790128,0.627393655,1.871802177,29.43246956,24.5063068,25.80883604,4.98E-05,4.98E-05,4.98E-05,65349,56624.5,0.344620259,0.37379743,0.041131982,3.54E-10,3.54E-10,3
37.75846422,49.65049653,1589.25,73.56224701,49.7590902,0.046287398,0.031241464,1585.5,59.304,0.037403974,80.75,23.24561404,61.84210526,474,4.956521739,0.02195039,0.001910544,1.30E-05,11.48907711,0.91943013,0.080026457,-6.260367118,35.18499011,98.06749422,0.358783411,10840.07743,2.787196868,4.742002494,1093.333651,0.377192982,0.377777778,0.564705882,0.014705882,50.46082949,50.47137027,50.44940723,44,0.468780938,0.531219062,24.09085862,25.6450844,0.584710302,0.415289698,74.98863556,63.19761039,0.571488602,0.428511398,55.69409723,48.2265918,1.018358965,1.572533355,11.89638039,8.079311134,8.988783086,2.20E-05,2.20E-05,2.20E-05,159247,182264,0.096030305,0.059782351,0.011551025,6.05E-11,6.05E-11,1
35.88113391,62.93710866,1672.605263,99.86483063,63.19981282,0.059706156,0.03762819,1670,87.4734,0.052379281,110,37.71929825,71.92982456,539,4.56,0.020439179,0.001141806,4.87E-06,17.90075166,0.946878518,0.05289602,-6.775144396,44.68901621,133.7791354,0.334050718,18781.87958,2.993557405,4.980709162,1601.902085,0.377192982,0.389380531,0.568181818,0,51.52173913,51.60317853,51.44221951,40.7079646,0.514448103,0.485551897,32.06216061,31.14869293,0.532825792,0.467174208,97.65196899,91.43823061,0.530979973,0.469020027,72.67698807,68.30516484,0.698610124,1.349926717,10.74156067,6.694656318,7.807711892,1.04E-05,2.07E-05,1.56E-05,8413,8413,0.274680861,0.274680861,0.016152024,5.37E-11,8.06E-11,0
36.18316314,78.26816647,1658.627907,92.57658788,78.71717092,0.055815164,0.047188502,1663,80.8017,0.048587913,111.25,38.37209302,75.58139535,469,4.095238095,0.023906484,0.004342902,1.13E-05,5.504725191,0.845928337,0.153673128,-5.439212399,55.66144535,118.8302564,0.468411388,20779.32263,2.134875507,5.024601496,1014.751216,0.38372093,0.4,0.558823529,0,51.42548596,51.46868943,51.38158216,47.05882353,0.477057895,0.522942105,38.45258366,40.25935265,0.451069725,0.548930275,79.80844954,88.04113365,0.455747306,0.544252694,62.64179838,68.45457139,0.555605051,1.252762968,9.968461885,6.764617331,7.577881065,1.37E-05,1.37E-05,1.37E-05,124795,124795,0.241432513,0.241432513,0.092359334,9.39E-11,9.39E-11,0
49.57698477,23.33482643,1210.134831,140.0034859,23.21265799,0.115692469,0.019282832,1160.5,83.7669,0.072181732,123.5,4.494382022,33.14606742,607,3.869565217,0.000457024,0.000207748,2.48E-06,2.199892148,0.684932738,0.311348326,-8.479183806,16.41382787,195.1027475,0.084129148,10060.58264,11.88648675,4.709593243,9276.34489,0.460674157,0.459770115,0.6625,0,41.61590253,42.4352809,40.7268554,53.44827586,0.362049824,0.637950176,9.956439214,13.21640252,0.371379505,0.628620495,118.8973983,154.6883666,0.371312875,0.628687125,84.36741671,109.7796977,0.481877666,0.457182941,12.99632434,9.387875829,10.6517126,5.99E-05,5.53E-05,5.53E-05,104427,110089,0.263531918,0.220591456,0.044305385,2.76E-10,2.55E-10,3
36.45585905,68.32630546,1646.109091,107.152036,68.48271797,0.065094128,0.041507763,1631,105.2646,0.064539914,141.75,42.27272727,76.36363636,554,5.5,0.014759818,0.001141166,6.55E-06,12.93397738,0.927850779,0.071737467,-6.77570452,48.42459427,143.9464065,0.336407108,21898.61715,2.972588799,5.047386801,1711.573902,0.422727273,0.423963134,0.630434783,0.013157895,50.12289326,50.12782539,50.11734113,43.77880184,0.466080724,0.533919276,33.05957924,35.38380649,0.561587846,0.438412154,107.8722352,95.31080117,0.551878141,0.448121859,79.77892863,71.88936841,1.001359565,1.427932349,14.18919092,8.518105534,9.715196099,1.38E-05,1.93E-05,2.20E-05,155567,150034.5,0.234743706,0.119640442,0.103212565,3.80E-11,6.07E-11,1
34.55571186,75.95045807,1736.545455,127.2079933,76.13681546,0.073253477,0.043736522,1711.5,107.4885,0.062803681,151.5,50,72.72727273,652,5.076923077,0.022738574,0.00071805,2.51E-06,31.66710442,0.969284455,0.03060856,-7.238970946,53.83685851,171.3917656,0.314115782,28988.08562,3.183539499,5.169189645,2182.529823,0.393939394,0.391752577,0.5,0.017241379,49.11140009,49.15982709,49.06395179,46.90721649,0.500994818,0.499005182,38.10983723,38.03408783,0.488157197,0.511842803,119.7484225,122.6191365,0.489310309,0.510689691,88.85956444,90.78007618,0.947843213,1.415853163,9.220855983,5.881868538,6.503600787,8.68E-06,5.79E-06,2.89E-06,205889,205889,0.225445828,0.13443897,0.069552147,2.51E-11,8.37E-12,2
36.00158272,55.26056815,1666.77561,84.68192153,55.39621233,0.050805832,0.033154174,1648,78.5778,0.047680704,115,37.07317073,74.63414634,412,4.659090909,0.022968706,0.001362626,5.35E-06,16.85620433,0.943789504,0.05599063,-6.598341391,39.17103739,113.4005084,0.345422062,13955.00343,2.895009066,4.851700058,1313.181999,0.390243902,0.391089109,0.493670886,0,50.20278417,50.21082532,50.19461457,45.04950495,0.469040598,0.530959402,26.82703217,28.54289832,0.526306365,0.473693635,82.26863897,78.048359,0.520201915,0.479798085,61.18749306,58.76326823,0.975805038,1.665345544,9.682769532,5.92446378,6.73953765,2.91E-06,8.73E-06,5.82E-06,0,0,0.506892827,0.506892827,0,8.47E-12,1.69E-11,2
34.30292037,70.26599517,1749.092308,115.3155056,70.50407515,0.065928771,0.040172834,1746,96.369,0.055194158,129.25,49.23076923,73.07692308,670,5.416666667,0.011130264,0.000665652,3.11E-06,16.72083469,0.943320395,0.056415868,-7.314742943,49.85390964,154.4201453,0.322845893,24185.38759,3.097453067,5.090523162,1913.236611,0.415384615,0.426356589,0.6,0.022222222,48.00331629,48.08563235,47.92238671,49.6124031,0.456077989,0.543922011,33.68523879,36.78649336,0.443483478,0.556516522,102.8354089,115.1974824,0.444673384,0.555326616,76.51737266,85.50937388,0.813332571,1.496642418,8.086682665,6.288421181,6.768558294,1.31E-05,1.31E-05,8.74E-06,175215,175215.5,0.118084399,0.125111762,0.008123453,5.73E-11,3.82E-11,2
37.28424295,77.27217565,1608.886486,109.1379914,77.45110583,0.067834488,0.048028358,1601,108.2298,0.067601374,146,44.32432432,75.13513514,633,5.441176471,0.048275715,0.004058386,1.47E-05,11.89529897,0.922193049,0.07752584,-5.506969923,54.76620214,143.0781578,0.382771228,24617.04035,2.612526561,5.098205947,1495.18195,0.372972973,0.373626374,0.470588235,0.018181818,48.06120509,48.07851888,48.04233275,47.8021978,0.471279611,0.528720389,37.6123817,39.83864313,0.507977607,0.492022393,101.9754484,100.3611835,0.503284573,0.496715427,76.85598002,76.35274928,0.820432252,1.404205288,9.757935825,7.248012042,7.875355077,3.35E-05,4.02E-05,3.69E-05,140965,146023,0.12572346,0.079444935,0.013131574,1.12E-10,1.24E-10,0
35.15981446,80.83228268,1706.744565,128.6920965,81.02868548,0.075402084,0.047360504,1702.5,126.7623,0.074456564,173.25,47.2826087,79.89130435,704,5.575757576,0.007817362,0.000963911,3.20E-06,8.110048196,0.889906546,0.109728885,-6.944511871,57.29593298,172.1740319,0.332779179,30991.40875,3.004995694,5.198211428,2069.528898,0.429347826,0.427777778,0.636363636,0.033333333,48.33333333,48.2856632,48.38271626,48.33333333,0.474596386,0.525403614,39.48406968,41.54380053,0.494508118,0.505491882,121.0749678,122.4122111,0.492521781,0.507478219,90.05037365,91.40743074,0.915429574,1.344909145,11.55717642,8.462489583,9.672183147,3.49E-05,3.81E-05,3.81E-05,140956,102072.5,0.101577342,0.05163938,0.011657417,1.11E-10,1.21E-10,1
38.30004394,53.48191486,1565.903226,130.2225574,53.63164143,0.083161306,0.034154036,1595,108.2298,0.067855674,161,30.10752688,63.44086022,519,3.321428571,0.010721671,0.001255047,6.45E-06,8.542846248,0.894727839,0.104734162,-6.680582516,37.92329734,178.9875871,0.211876689,21324.50099,4.719726385,5.035848987,3379.089749,0.408602151,0.411111111,0.567567568,0,45.14995947,44.90054978,45.39162074,50,0.401662176,0.598337824,24.09881215,29.41293727,0.504907555,0.495092445,127.1829364,125.9406884,0.500449104,0.499550896,91.53210382,91.44992587,0.739137329,1.22644566,14.0633488,9.476651371,11.03101892,4.75E-05,5.43E-05,5.43E-05,58962,61062,0.701955523,0.824580345,0.076793745,3.23E-10,3.69E-10,3
38.7176824,51.41131778,1550.233333,104.7775654,51.6394969,0.067588255,0.0331636,1551.5,136.3992,0.087914405,172,32.22222222,66.66666667,420,4.736842105,0.008091127,0.001519666,4.88E-06,5.324280982,0.84145166,0.158040431,-6.489264912,36.51463844,142.0999173,0.25696453,16300.86694,3.891587685,4.919180812,2211.977153,0.411111111,0.413793103,0.555555556,0.041666667,53.22672758,52.99565867,53.46683348,49.42528736,0.582882017,0.417117983,27.91179288,23.61167854,0.487064004,0.512935996,99.17149093,101.7713215,0.493012659,0.506987341,72.84934041,73.87460065,0.600020708,1.52846885,10.6986291,7.428583641,8.384868817,5.69E-05,4.98E-05,4.98E-05,57252,55231,0.075168968,0.082172266,0.004277113,4.05E-10,3.54E-10,3
32.69442012,56.59113113,1835.187817,105.9780024,56.72930827,0.057747769,0.030836697,1835,83.0256,0.045245559,120,40.10152284,70.55837563,576,4.69047619,0.016766649,0.000841648,8.37E-07,19.92120627,0.952156353,0.047796119,-7.080148338,40.11367857,144.5219643,0.277561122,18212.77903,3.602810049,4.967346328,2082.740741,0.45177665,0.456410256,0.685393258,0.139534884,49.04308898,49.0294954,49.05843984,52.82051282,0.529729919,0.470270081,29.19922725,27.51172244,0.421982607,0.578017393,93.88174016,109.8763715,0.429691422,0.570308578,69.52113351,80.09279584,0.936199693,1.311173731,15.39191749,13.39068369,14.13693974,4.68E-05,4.40E-05,4.40E-05,152652,154548,0.140852625,0.140408998,0.009500197,1.29E-10,1.21E-10,1
34.31930632,42.19772681,1748.798165,56.08207937,42.39247796,0.032068926,0.024129558,1743,47.4432,0.027219277,70,26.60550459,58.71559633,292,4.954545455,0.031303898,0.007449378,2.26E-05,4.202216504,0.807303268,0.192113678,-4.899624779,29.97600864,73.50943761,0.407784492,6922.560789,2.452275702,4.547236888,721.0616308,0.52293578,0.53271028,0.754385965,0.1,49.39527213,49.38174867,49.40916165,47.6635514,0.486032968,0.513967032,20.89906764,21.49125012,0.565882101,0.434117899,55.29757403,48.43362184,0.554496382,0.445503618,41.80067417,37.46791665,0.754078414,1.880312867,15.89063378,13.92975045,14.64587899,4.15E-05,3.63E-05,3.63E-05,80028,73902,0.146875093,0.158004726,0.011596818,2.15E-10,1.88E-10,0
33.89282208,48.02720583,1769.82716,97.53791444,48.32526759,0.055111548,0.027136664,1778,109.7124,0.061705512,152,34.56790123,60.49382716,435,4.5,0.012817031,0.000634135,2.11E-06,20.21184775,0.952707188,0.047136076,-7.363249416,34.17112441,133.7808497,0.255426128,14361.60879,3.915026268,4.864173202,2095.022163,0.271604938,0.278481013,0.5,0,50.88509817,50.84044328,50.92941917,46.83544304,0.485500924,0.514499076,23.81216049,24.5129777,0.493277755,0.506722245,93.95928761,95.23112945,0.492801359,0.507198641,68.53964807,69.53363967,0.58618258,1.457246097,15.71333342,14.69279159,15.21431334,6.85E-05,6.17E-05,5.48E-05,68852,61501,0.130595357,0.133999968,0.002114748,4.69E-10,3.75E-10,0
31.87530913,68.926792,1882.245614,103.5826002,69.22028268,0.055031394,0.036619446,1867.5,111.9363,0.059939116,139.75,53.50877193,81.57894737,445,3.8,0.004190485,0.001728771,1.69E-06,2.423967447,0.707738798,0.291975372,-6.360344548,48.94613128,138.2592439,0.354017062,21259.95891,2.824722614,5.034532531,1562.176051,0.543859649,0.553571429,0.822580645,0.026315789,48.80099657,48.77956979,48.82401285,46.42857143,0.421579877,0.578420123,31.78653691,37.23273809,0.539886781,0.460113219,101.5887284,93.78352081,0.526706331,0.473293669,75.26836545,71.34993189,0.768906073,1.851351566,17.4746571,12.62898596,15.86632124,7.37E-05,6.45E-05,6.45E-05,95744,93903,0.130484274,0.115027081,0.005687292,3.40E-10,2.97E-10,3
31.71988064,63.45893977,1892.042105,75.26544431,63.62471543,0.039780005,0.033539919,1896,70.4235,0.037143196,95.75,43.68421053,75.78947368,437,4.523809524,0.015326992,0.004621966,4.10E-06,3.316119434,0.768152647,0.231642033,-5.376935075,44.98946773,96.36287393,0.466875529,13619.79189,2.141898511,4.841140582,825.5979848,0.536842105,0.537634409,0.82,0.049180328,50.57224607,50.5930601,50.55113931,44.62365591,0.454371904,0.545628096,30.32742422,33.2336586,0.562849134,0.437150866,72.29458101,63.71261279,0.543434271,0.456565729,55.4358147,50.81226768,0.839945441,1.655247448,14.87832871,13.30069971,13.97597218,4.41E-05,4.13E-05,4.13E-05,176005,165628,0.112102201,0.086149463,0.007049729,1.21E-10,1.14E-10,1
33.66176593,76.00905843,1782.802083,117.3232541,76.200617,0.065808345,0.042634603,1779,85.2495,0.047919899,109.75,44.27083333,77.08333333,724,6.193548387,0.020124486,0.001537994,3.63E-06,13.08488929,0.928846242,0.070986175,-6.477276069,53.88197301,156.8205402,0.343590023,26545.82997,2.910445395,5.130966418,1825.670477,0.432291667,0.436842105,0.662650602,0.01754386,51.02848865,51.03405215,51.02573266,46.31578947,0.629008799,0.370991201,42.73843334,32.82252917,0.476679219,0.523320781,108.271974,113.4454119,0.492766629,0.507233371,82.30854769,83.50802327,0.962722068,1.350423735,11.99460651,10.2257979,11.1287454,3.76E-05,3.47E-05,3.18E-05,131687,119591,0.082702716,0.051822805,0.00677906,1.09E-10,9.21E-11,2
34.14008486,50.00849669,1757.587629,68.05046171,50.13848912,0.038718105,0.028452918,1759.5,63.0105,0.035811594,84.25,34.02061856,73.71134021,385,5.878787879,0.017150168,0.003148577,7.97E-06,5.446959237,0.844556392,0.155050985,-5.760804797,35.45326566,89.72980034,0.395111385,9994.079941,2.530931881,4.706712929,908.4000494,0.5,0.505208333,0.762886598,0.072727273,50.10067959,50.10227225,50.09889922,45.83333333,0.448077752,0.551922248,23.73195586,26.33878833,0.60323831,0.39676169,69.69171609,56.51992371,0.582286519,0.417713481,52.05833757,44.09213959,0.97077256,1.930917364,13.52871494,11.13744676,12.1990243,3.49E-05,2.62E-05,2.62E-05,174671,182921,0.025610875,0.017404294,0.0004821,1.02E-10,7.62E-11,2
32.93300186,79.91306252,1822.169355,114.0418353,80.23980037,0.06258575,0.043856002,1816.5,73.3887,0.040401156,102.75,52.41935484,81.4516129,738,4.428571429,0.033980882,0.00168107,5.50E-06,20.21384313,0.952714047,0.047131762,-6.388324891,56.73810696,151.3571342,0.374862455,26979.10949,2.667645121,5.137997721,1615.068482,0.451612903,0.463414634,0.701754386,0.025641026,49.8917163,49.86972915,49.91911452,52.03252033,0.614378286,0.385621714,44.47268456,35.23353004,0.396973688,0.603026312,95.36384586,117.5360327,0.42375982,0.57624018,74.40457906,86.76439539,0.809514928,1.405342556,14.92592602,12.23982951,13.40008981,2.18E-05,2.18E-05,2.18E-05,56441,35896.5,0.122768467,0.071542707,0.016228224,9.54E-11,9.54E-11,2
32.32524869,51.56384575,1856.2,80.21455506,51.72646344,0.043214392,0.027779251,1845,68.1996,0.036964553,95.75,30.625,61.25,480,4.848484848,0.013261966,0.001148582,1.81E-06,11.54638061,0.920180431,0.079694275,-6.769227092,36.57613307,107.7483337,0.339458921,12381.07128,2.945864547,4.799728334,1269.647985,0.425,0.433962264,0.623188406,0.063829787,49.77607166,49.77553687,49.77695859,49.68553459,0.494060376,0.505939624,25.70930482,26.0165478,0.45065593,0.54934407,72.33243869,79.86063937,0.455140779,0.544859221,54.28144269,59.39100302,0.800324269,1.353795194,17.47705749,14.12364788,15.65049053,6.03E-05,5.36E-05,5.36E-05,136777,130785,0.224117948,0.244112175,0.017203556,2.02E-10,1.80E-10,0
32.98151901,52.18097978,1819.450867,72.51907657,52.32918531,0.039857672,0.028679521,1826,65.2344,0.035725301,88,32.94797688,69.94219653,377,5.088235294,0.021853691,0.003413908,4.88E-06,6.401370579,0.864722723,0.135083997,-5.679897587,37.00232179,95.14565868,0.388901841,11060.32339,2.571342934,4.750737935,978.6084687,0.49132948,0.497076023,0.717647059,0.08,49.21495067,49.26280826,49.16500444,47.36842105,0.445082645,0.554917355,24.68787614,27.56624133,0.471352984,0.528647016,65.32239617,69.17861609,0.467901245,0.532098755,49.37867287,52.65728148,0.925467205,1.826606201,13.71289306,12.50400562,13.03269265,2.85E-05,3.81E-05,3.81E-05,163632,177930.5,0.067459248,0.034657415,0.003964068,9.06E-11,1.21E-10,1
31.67926598,43.30912144,1893.723684,84.38950941,43.39916552,0.044562736,0.022869821,1890.5,57.8214,0.030585242,76.75,25,68.42105263,460,3.619047619,0.008079963,0.001304153,8.62E-07,6.19556214,0.860946362,0.138961783,-6.642201241,30.68784423,111.0897843,0.276243621,10710.02236,3.619993098,4.736760487,1608.57701,0.407894737,0.426666667,0.71875,0,44.12650602,44.51392402,43.71032368,50.66666667,0.413261679,0.586738321,19.81945536,23.61572998,0.281525352,0.718474648,58.9430872,94.16290486,0.29094623,0.70905377,43.97214084,68.64530339,0.648859701,1.5712167,13.08625012,11.39187193,12.15596198,4.75E-05,4.07E-05,4.75E-05,52912,55772.5,0.121091091,0.114325158,0.007597345,3.23E-10,3.23E-10,3
32.7573766,64.01678412,1832.493333,67.04624732,64.44806392,0.036587444,0.034934252,1826,62.2692,0.034101424,84,40,74.66666667,285,4.6875,0.029874292,0.006975822,1.14E-05,4.282547972,0.81044607,0.189243898,-4.965305125,45.57166303,81.94314328,0.5561376,11731.60331,1.79811615,4.776327479,589.3731572,0.533333333,0.554054054,0.804878049,0.083333333,50.83843492,50.88791684,50.79023767,47.2972973,0.440442784,0.559557216,30.24670253,34.09223991,0.572199238,0.427800762,61.98495022,53.59612558,0.541070641,0.458929359,48.76985271,44.9156181,0.485599323,2.277267285,13.08428003,11.98854208,12.33996718,4.27E-05,4.98E-05,4.27E-05,55541,45503,0.072336269,0.067588844,0.001970885,3.04E-10,3.04E-10,3
39.48220013,52.08387426,1519.844538,82.95556352,52.1866229,0.054581611,0.034269212,1515,81.543,0.053823762,110.75,31.51260504,62.18487395,455,5.534883721,0.018215417,0.003446104,1.20E-05,5.285800633,0.84044478,0.159000469,-5.670511076,36.90151494,111.202279,0.331841355,12891.62775,3.013488178,4.817277867,1340.427013,0.457983193,0.454935622,0.650943396,0.013513514,48.89663182,48.89541184,48.89876589,48.92703863,0.468587703,0.531412297,25.26398757,26.9043346,0.487625245,0.512374755,77.65273898,79.59898864,0.48573632,0.51426368,57.74173941,59.41313917,1.035590711,1.607712286,18.00548194,15.88883702,16.74669459,1.10E-05,1.38E-05,1.38E-05,72379,67910,0.132813364,0.085667092,0.019110218,3.03E-11,3.78E-11,1
39.55809608,51.93765493,1516.888889,107.129695,52.14443341,0.070624616,0.034239591,1528,103.0407,0.067435013,142.75,27.77777778,63.49206349,452,3.315789474,0.012739842,0.001946778,8.05E-06,6.544065384,0.86697005,0.132481875,-6.241579631,36.87168246,147.493211,0.249989015,17084.99509,4.000175776,4.939584968,2359.995079,0.404761905,0.406504065,0.64,0.028571429,49.40357853,49.40229256,49.40697023,58.53658537,0.576099528,0.423900472,27.98725228,24.00730736,0.435654714,0.564345286,97.35163268,110.8012044,0.443916155,0.556083845,71.62620566,80.16625759,0.669940133,1.05664809,20.68733396,16.58409659,17.55803136,1.56E-05,2.07E-05,2.07E-05,47268,47268.5,0.33845262,0.137694048,0.160838114,8.06E-11,1.07E-10,0
40.65634114,51.11893811,1476.360825,96.96360846,51.38010657,0.065677446,0.034624962,1481,88.956,0.060064821,119,29.89690722,64.94845361,447,4.217391304,0.012870972,0.003310139,2.18E-05,3.88834736,0.794360329,0.204292532,-5.710764949,36.33122177,132.0134629,0.27520846,15067.73935,3.633609234,4.885018209,1918.741351,0.443298969,0.446808511,0.619047619,0.034482759,51.0863805,51.17791734,50.99743648,43.61702128,0.472969202,0.527030798,24.98947147,26.37901878,0.540515443,0.459484557,97.05597499,89.48570894,0.535758475,0.464241525,70.86725607,65.96796471,0.647686092,1.433251344,20.43443747,16.98140375,18.23677805,1.37E-05,2.06E-05,1.37E-05,18877,18877,0.439315771,0.439315771,0.177740348,9.39E-11,9.39E-11,0
38.69467611,60.94421285,1550.630435,71.0431221,61.16056092,0.045815638,0.039302861,1555,68.9409,0.044334984,94,42.75362319,73.91304348,351,5.111111111,0.047776215,0.019016121,4.12E-05,2.512405902,0.714854184,0.284529734,-3.962468188,43.24704737,90.56817636,0.477508206,12305.00962,2.09420485,4.797052068,758.6732568,0.456521739,0.467153285,0.765625,0,50.95484826,50.92605938,50.98330592,49.6350365,0.524143895,0.475856105,31.31364108,29.83637979,0.56848138,0.43151862,68.2863257,59.4943047,0.560247324,0.439752676,53.12045931,47.06262769,0.741585955,1.688949975,30.69476619,24.99634663,28.52574416,7.37E-05,5.99E-05,5.99E-05,105475,102020,0.312250245,0.343298099,0.022528014,3.40E-10,2.76E-10,3
40.44516364,46.75824348,1483.52459,106.5406442,46.85144449,0.071815894,0.031518347,1485.5,85.2495,0.057387748,113.25,22.95081967,60.6557377,656,5.951219512,0.007652081,0.001245006,5.43E-06,6.146217897,0.859541153,0.139848793,-6.688614554,33.12897411,147.0401549,0.225305626,15303.60726,4.438415583,4.891763922,2610.50126,0.467213115,0.473251029,0.695652174,0.054794521,49.20597577,49.23070149,49.18430052,50.61728395,0.516242878,0.483757122,23.80486269,23.04370623,0.442440004,0.557559996,97.80547029,109.7947956,0.44600592,0.55399408,71.17788106,79.32814614,0.857295951,1.062054693,15.12357714,14.22367234,14.64602126,1.93E-05,2.48E-05,2.48E-05,69895,72069,0.036134267,0.028580767,0.00120106,5.32E-11,6.83E-11,1
38.54417206,58.21238544,1557.108597,82.53653168,58.33366257,0.053006278,0.037384923,1560,83.0256,0.053221538,108,42.08144796,71.94570136,424,5.261904762,0.03474824,0.00841617,2.67E-05,4.12874734,0.804523589,0.194859003,-4.777600403,41.24812838,108.7813969,0.379183661,14096.41742,2.637244433,4.856078862,1147.532534,0.443438914,0.45,0.656565657,0,51.22823985,51.22340941,51.23280818,46.36363636,0.498674733,0.501325267,29.13388242,29.21120539,0.593464668,0.406535332,83.80155274,69.35915281,0.581544887,0.418455113,62.73548974,53.21647583,0.93112616,1.545432582,28.41436614,20.92987673,22.66268271,8.68E-06,2.89E-05,2.60E-05,78202,78202,0.396558434,0.132295482,0.240445477,2.51E-11,7.54E-11,2
40.42421046,51.93319525,1484.404348,82.1918991,52.04677082,0.05537029,0.034985882,1479.5,88.2147,0.05962467,118.25,30.86956522,68.69565217,445,6.052631579,0.015105162,0.00523386,1.75E-05,2.886046211,0.742029364,0.257109315,-5.252606194,36.80262458,110.3173444,0.333606876,12754.76505,2.997540139,4.812642573,1322.722671,0.447826087,0.449339207,0.68627451,0.028169014,49.83018467,49.82238399,49.83783446,47.13656388,0.474706376,0.525293624,25.35670955,26.67358737,0.497537316,0.502462684,77.81380074,78.19801078,0.495250834,0.504749166,57.8703305,58.42263754,1.030156287,1.659641504,24.58436858,20.3273186,21.70452395,2.91E-05,3.49E-05,3.20E-05,93249,76055,0.12826331,0.074459175,0.015822132,8.47E-11,9.31E-11,2
38.23570425,62.39257434,1569.6,80.28814427,62.57817489,0.051151978,0.039750621,1574,88.956,0.056515883,123,51.72413793,82.06896552,353,5.178571429,0.01738537,0.013476447,3.61E-05,1.290055897,0.562671462,0.436160529,-4.306811788,44.24945182,103.5903638,0.427157992,14400.48523,2.341054173,4.865347236,970.0426144,0.489655172,0.5,0.777777778,0,51.87597707,51.86892074,51.88410719,46.52777778,0.500924063,0.499075937,31.33408966,31.27623374,0.498567425,0.501432575,73.14443816,73.35430899,0.49893139,0.50106861,56.26692638,56.38730994,0.828136363,1.865867441,20.63265533,19.12348001,19.6740378,2.18E-05,1.31E-05,8.74E-06,69054,69171.5,0.075403099,0.037592179,0.008204176,9.54E-11,3.82E-11,2
39.44664557,53.10833122,1521.312821,88.71603947,53.24500848,0.058315449,0.03490954,1513,97.8516,0.064673893,137.5,33.84615385,71.79487179,405,5.735294118,0.00737197,0.003100761,1.04E-05,2.377471503,0.703221512,0.295785464,-5.776107845,37.64990656,119.9618625,0.313848966,14189.16946,3.186245956,4.858927085,1528.911997,0.466666667,0.471502591,0.714285714,0,50.32790867,50.33397807,50.32075343,47.15025907,0.488998055,0.511001945,26.32833734,26.91417948,0.509982202,0.490017798,85.66841064,83.97482883,0.508100534,0.491899466,63.37293558,62.35441017,0.87321104,1.394241423,23.48081446,18.76013252,21.02000214,4.02E-05,3.69E-05,3.69E-05,107154,105653,0.347378935,0.31164637,0.050571084,1.35E-10,1.24E-10,0
39.58989149,74.40259634,1516.31068,135.1014816,74.58385489,0.089098813,0.049068174,1528.5,95.6277,0.062563101,124.5,29.61165049,61.65048544,1071,5.282051282,0.015783875,0.002464181,1.19E-05,6.405322879,0.864400668,0.134950366,-6.005895769,52.73874956,183.8461547,0.28686349,30460.3053,3.485978645,5.190704362,2563.535077,0.470873786,0.47029703,0.736842105,0.049180328,50.41065483,50.54398471,50.32342928,47.52475248,0.454449485,0.545550515,35.55312236,38.95403274,0.672741523,0.327258477,150.7921272,105.1719686,0.656143591,0.343856409,109.5497379,79.30497984,0.900684428,1.050821625,16.35678841,14.94525225,15.43000116,2.54E-05,2.85E-05,2.85E-05,139085,122270,0.021244093,0.01049865,0.000570605,8.05E-11,9.06E-11,1
39.19532842,64.07459084,1531.431579,67.24766114,64.41031107,0.043911633,0.041839669,1537,69.6822,0.0453365,93,45.26315789,70.52631579,303,4.75,0.029510319,0.019643627,3.68E-05,1.502284617,0.599915853,0.399335683,-3.930002316,45.54496774,82.32739964,0.553217616,11779.71192,1.807606937,4.77810478,595.2623149,0.442105263,0.451612903,0.738095238,0.029411765,50.97998332,51.04899087,50.91462,44.08602151,0.495491317,0.504508683,32.06352901,32.35397302,0.646247731,0.353752269,66.18261363,48.96593087,0.610914034,0.389085966,52.00100114,41.49965033,0.567363708,1.824549292,29.81650405,25.83293132,28.07404966,6.11E-05,5.43E-05,4.75E-05,64207,62266.5,0.358621708,0.392567041,0.062232248,4.15E-10,3.23E-10,3
39.53655275,56.75859813,1517.673913,61.7252168,57.07304832,0.040670935,0.037398415,1517,57.0801,0.037626961,76.5,41.30434783,73.91304348,258,4,0.04202282,0.020721318,4.77E-05,2.027999352,0.669240604,0.330000403,-3.876592237,40.35673949,77.91755293,0.517941567,9878.733027,1.930719724,4.701671359,601.7478252,0.47826087,0.494505495,0.777777778,0.029411765,50.0234192,50.02363872,50.02304796,49.45054945,0.498881157,0.501118843,28.50458053,28.56843635,0.57393935,0.42606065,59.02939136,50.85937486,0.558063016,0.441936984,46.35180771,41.24822158,0.574210268,2.061423036,31.89602335,25.93185701,27.38905967,2.85E-05,4.98E-05,4.27E-05,58882,35186,0.441291786,0.214114632,0.287165273,2.03E-10,3.04E-10,3
37.50511449,60.59471924,1599.99115,122.6331473,60.72802366,0.076646141,0.037871909,1603,75.6126,0.047169432,101,18.5840708,56.63716814,913,5.65,0.015712079,0.001599496,4.66E-05,9.823142855,0.905170818,0.092146763,-6.438066597,42.94119734,168.3213604,0.255114367,22707.18273,3.919810597,5.063133365,2639.151408,0.526548673,0.525345622,0.763157895,0.215686275,49.31986009,49.37847694,49.28697406,51.15207373,0.492454641,0.507545359,30.13492723,30.59316859,0.586656607,0.413343393,128.9232412,108.2168112,0.58089995,0.41910005,93.61975212,79.51987232,0.85360654,0.908714938,9.275288928,5.607995165,6.590896701,2.20E-05,3.03E-05,3.30E-05,164255,169546,0.16781812,0.107996316,0.026228027,6.05E-11,9.08E-11,1
35.53611037,40.9108351,1688.814159,70.50526179,41.06772744,0.041748384,0.024224593,1685,68.1996,0.04047454,94,25.66371681,62.83185841,333,4.035714286,0.00456864,0.002461627,9.49E-06,1.855943044,0.648977045,0.349675087,-6.006932604,29.03926856,95.07050151,0.30544983,8673.239334,3.27386006,4.645151441,1244.990071,0.539823009,0.553571429,0.822580645,0,52.19692959,52.24554347,52.14781129,44.64285714,0.511442807,0.488557193,20.78114183,20.31087225,0.607851174,0.392148826,74.12153672,59.53484737,0.599614023,0.400385977,54.43279371,44.47993695,0.755402566,1.62414406,6.159598939,5.585863719,5.800869459,1.56E-05,5.18E-06,5.18E-06,97449,97449,0.003730938,0.000982777,2.40E-05,8.06E-11,2.69E-11,0
35.63267348,37.94246898,1683.717647,48.88339181,38.16981074,0.02903301,0.022534936,1689,56.3388,0.033356306,79,16.47058824,65.88235294,225,3.541666667,0.023169524,0.007753545,2.33E-05,2.988249241,0.748700407,0.250548179,-4.859605168,26.99013201,63.81000096,0.422976518,5410.57763,2.364197438,4.440213743,603.4377631,0.505882353,0.518072289,0.744186047,0.038461538,50.32233599,50.31506918,50.32949586,44.57831325,0.478173143,0.521826857,18.66395921,19.49729669,0.506281059,0.493718941,45.40300432,44.83618428,0.502015349,0.497984651,34.71149791,34.57186717,0.532944401,1.609437912,6.803616212,5.921002504,6.165967044,2.74E-05,1.37E-05,1.37E-05,99608,100134,0.048834709,0.034456919,0.002424282,1.88E-10,9.39E-11,0
38.78773373,100.4437618,1547.589928,176.7997235,100.7855901,0.114241971,0.064903344,1571,103.782,0.066061108,142.5,22.30215827,53.95683453,1197,4.793103448,0.004905013,0.000676259,8.30E-06,7.253160633,0.877529314,0.120985782,-7.298934912,71.26617418,238.5263312,0.298776969,53403.49075,3.346978197,5.434539756,3193.36972,0.45323741,0.451851852,0.655737705,0.129032258,47.5701684,47.7358803,47.58973125,45.92592593,0.420337936,0.579662064,46.21537962,54.27185557,0.388787516,0.611212484,148.727913,186.4800755,0.391374271,0.608625729,110.1268664,137.3321755,0.648217094,0.714817882,8.317932924,6.884995405,7.566999037,5.53E-05,4.15E-05,4.15E-05,116622,111173,0.057539731,0.061707562,0.00104046,2.55E-10,1.91E-10,3
36.76664929,50.48613671,1632.144796,90.97950235,50.60101935,0.055742298,0.030932388,1628,85.9908,0.052819902,115,24.43438914,62.44343891,527,5.139534884,0.020545905,0.001514371,6.79E-06,13.56728858,0.93106652,0.068625836,-6.49275527,35.78032392,123.585463,0.289518873,13891.89619,3.454006265,4.849731639,1707.459853,0.43438914,0.430555556,0.64516129,0.109090909,50.22250477,50.21153197,50.2339711,50,0.611077723,0.388922277,27.97014063,22.31402082,0.478031755,0.521968245,85.44679198,89.28724655,0.488321433,0.511678567,63.5746924,65.07736904,0.900107134,1.225329031,11.34589481,4.880850589,6.163308386,5.51E-06,1.38E-05,1.38E-05,18709,18709,0.622863313,0.622863313,0.568544458,1.52E-11,3.80E-11,1
37.75810238,34.85884233,1589.230415,113.8032838,34.93411542,0.071609052,0.021934417,1578,134.9166,0.085498479,189,14.74654378,55.29953917,467,5.564102564,0.002189128,0.000276565,2.08E-06,7.915432728,0.887086022,0.112070439,-8.193066185,24.70214991,159.1204738,0.155241807,12348.4,6.441563767,4.798580799,4099.938716,0.447004608,0.448598131,0.6875,0.133333333,51.13182423,51.19790069,51.06494267,47.19626168,0.477334553,0.522665447,17.06935238,17.86148253,0.563977911,0.436022089,119.4970298,105.0703815,0.561938294,0.438061706,85.35485609,75.3618525,0.846135443,0.920098188,7.80034766,5.87607824,6.323627363,1.45E-05,2.03E-05,2.03E-05,55528,60145,0.067986649,0.034466759,0.005643263,4.19E-11,5.86E-11,2
35.64553362,41.81305637,1683.399015,76.60502658,41.91672573,0.045506161,0.02483847,1689,72.6474,0.043012078,96,20.68965517,62.06896552,367,5.970588235,0.007815207,0.001298913,3.28E-06,6.01672878,0.857175123,0.142465309,-6.646227573,29.63960101,104.3344314,0.284082643,9715.158254,3.520102425,4.694419989,1469.07154,0.502463054,0.505,0.752475248,0.137254902,49.79647218,49.79145316,49.80168097,45.5,0.457259113,0.542740887,20.04267834,21.83588721,0.517774458,0.482225542,75.07545361,72.45239707,0.51325535,0.48674465,54.94557621,53.50773688,0.93802631,1.446398285,6.425494253,5.243470751,5.721734458,5.24E-05,2.91E-06,2.91E-06,166976,169527,0.001478866,0.001259311,6.45E-07,1.52E-10,8.47E-12,2
37.08345393,38.47263813,1618.15,88.7452846,38.60269517,0.05484367,0.023775693,1627,85.2495,0.052396742,113,14.28571429,60,369,4.827586207,0.013107818,0.001187963,5.99E-06,11.03385651,0.916516933,0.083064061,-6.735514849,27.29622753,122.7519991,0.222368904,10526.42925,4.497031649,4.729251186,2208.0785,0.385714286,0.391304348,0.666666667,0.060606061,51.4349332,51.44562976,51.42079896,50.72463768,0.527359774,0.472640226,19.82706027,18.77025476,0.421545637,0.578454363,79.69863306,93.3604904,0.426533628,0.573466372,58.07316261,67.33685332,0.761653175,1.201644515,5.818597581,5.283538353,5.503517062,1.75E-05,8.74E-06,8.74E-06,105671,143053,0.006541055,0.006333825,1.34E-05,7.64E-11,3.82E-11,2
36.33409791,38.41787294,1651.472222,70.76267919,38.52088577,0.042848241,0.023262803,1648.5,76.3539,0.046317197,97.25,20,58.33333333,412,4.615384615,0.007939578,0.001736715,5.86E-06,4.571608017,0.820022199,0.179372815,-6.355760115,27.23837954,94.71848149,0.287571962,8105.23977,3.477390472,4.615735977,1317.49258,0.505555556,0.505681818,0.741573034,0.142857143,50.98289043,51.09497598,50.88086995,46.59090909,0.467905917,0.532094083,18.63434367,19.87142661,0.612449131,0.387550869,74.12585883,58.96564922,0.601406246,0.398593754,54.0457293,43.99898512,0.900233758,1.481604541,11.47256379,7.018891784,8.356918524,6.37E-05,5.03E-05,5.03E-05,143265,140898,0.273527943,0.284442934,0.030826327,2.14E-10,1.69E-10,0
38.00900109,37.23597409,1579.020202,66.99798918,37.33083742,0.042430103,0.023581696,1576,61.5279,0.039040546,82.75,16.16161616,57.57575758,348,5.076923077,0.01322811,0.002044441,1.26E-05,6.470280691,0.865425033,0.133753862,-6.192630655,26.39688829,90.62733124,0.291268516,7515.567823,3.433258127,4.582931908,1244.588086,0.439393939,0.443877551,0.632183908,0.104166667,49.96577687,49.96308929,49.96832686,50.51020408,0.492509446,0.507490554,18.52507953,18.80471608,0.505572723,0.494427277,64.43932887,63.72508189,0.504551138,0.495448862,47.41099913,46.98139743,0.979131676,1.527607894,8.858054849,6.268975671,6.925018286,3.49E-05,3.17E-05,2.85E-05,140422,144483,0.260788928,0.138913466,0.054169847,1.11E-10,9.06E-11,1
37.40970906,60.67261876,1602.406593,173.797582,60.96521286,0.108460351,0.037863436,1627,219.4248,0.134864659,294,32.96703297,63.73626374,732,4.55,0.009792232,0.000441978,1.38E-06,22.15546172,0.956684695,0.043180535,-7.724249951,43.10891543,240.1728322,0.179491223,32526.76326,5.571303055,5.219210959,5352.302535,0.340659341,0.348314607,0.580645161,0.047619048,47.26254138,46.7956984,47.67916855,50.56179775,0.363755452,0.636244548,26.02008731,34.41248467,0.491055704,0.508944296,168.3019932,171.3400957,0.487076489,0.512923511,120.4213558,123.5751745,0.621197388,0.857824273,10.9134837,7.450130617,9.197698505,5.43E-05,2.72E-05,2.72E-05,70730,72838,0.151905279,0.116991729,0.020048889,3.69E-10,1.84E-10,3
36.57376657,39.33345245,1640.547619,97.60708111,39.54165849,0.059496646,0.023975807,1631,85.2495,0.05226824,118,16.66666667,57.14285714,436,4.2,0.007611864,0.000309609,1.26E-06,24.58541969,0.960762492,0.039078548,-8.08020073,27.96017486,135.5980148,0.206198999,11910.8591,4.849684078,4.782913197,2630.430134,0.321428571,0.337349398,0.535714286,0,47.44756628,47.47237775,47.43071365,49.39759036,0.497659858,0.502340142,19.73992488,19.83253056,0.593309907,0.406690093,104.4465578,86.4739163,0.589403067,0.410596933,75.16231789,62.73383245,0.693112839,1.16315081,6.08161578,5.624600628,5.816940295,4.98E-05,1.42E-05,1.42E-05,61163,58563,0.001740064,0.000901771,2.62E-06,3.54E-10,1.01E-10,3
32.81132232,597.2174878,1876.614583,548.160004,598.7854099,0.292100471,0.318241952,2107,269.8332,0.128065116,601,74.47916667,91.14583333,2551,2.823529412,0.077680453,0.061386943,0.001232104,1.265423058,0.553675909,0.437542137,-2.790558128,423.4052238,651.0239991,0.650368073,865970.4709,1.537590852,6.644473193,4004.034183,0.510416667,0.518324607,0.747474747,0.055555556,49.81476599,48.37704902,51.10776998,52.87958115,0.604327359,0.395672641,329.14975,266.3332647,0.444334683,0.555665317,433.9624032,485.2925715,0.49189249,0.50810751,385.1382383,391.434725,0.830150752,0.85520304,3.446786337,3.243944525,3.298878578,4.40E-05,3.58E-05,3.58E-05,201229,225512,0.002444393,0.001891818,6.08E-06,1.21E-10,9.84E-11,1
27.13888547,108.946668,2211.313953,129.7483774,109.5014191,0.058674788,0.049267843,2228,126.021,0.056562388,173,63.95348837,86.04651163,627,4.095238095,0.006069872,0.003839833,2.18E-07,1.580764468,0.61250441,0.387473543,-5.562326335,77.42919599,164.9411227,0.469435364,40122.09193,2.130218719,5.310353679,1405.442668,0.639534884,0.65060241,0.888888889,0.304347826,52.50760884,52.45514325,52.55745301,51.80722892,0.559914441,0.440085559,57.98686222,51.40878422,0.43699094,0.56300906,109.0348079,123.761806,0.459218493,0.540781507,87.32429651,94.76246017,0.477309612,1.460402333,5.287105455,4.372631114,4.711453807,1.56E-05,1.04E-05,1.04E-05,20369,20369,0.022559182,0.007341068,0.001194746,8.06E-11,5.37E-11,0
27.37157214,201.6172688,2188.393939,210.2972167,203.058353,0.0960966,0.092130245,2187.5,191.2554,0.08743104,265.25,53.03030303,71.21212121,1359,4.125,0.029087201,0.002910209,8.66E-07,9.994884948,0.909024,0.090948921,-5.839530504,143.5839384,249.7501949,0.574910215,112657.8788,1.739402037,5.75873168,1737.663991,0.560606061,0.578125,0.810810811,0.176470588,46.7685893,46.07917969,47.35537677,48.4375,0.418833185,0.581166815,92.98223117,109.529177,0.578476809,0.421523191,189.9541614,162.149858,0.538781353,0.461218647,149.5464455,138.3640435,0.678453332,1.658228077,5.0241116,4.516710654,4.757325643,3.43E-05,2.74E-05,2.06E-05,35722,36056,0.043665968,0.04924702,0.000989292,2.35E-10,1.41E-10,0
38.32712856,299.8352016,1579.897059,325.4771148,300.9519057,0.206011596,0.18978148,1601,343.2219,0.2143797,431,61.02941176,84.55882353,1563,4.689655172,0.02144223,0.01210398,0.000787251,1.771502475,0.624528653,0.35254179,-4.414220985,212.8051333,409.8141868,0.519272246,273980.0629,1.925772092,6.144689071,3156.834895,0.433823529,0.436090226,0.620689655,0.085714286,49.9841277,50.25589921,49.83933155,47.36842105,0.474389195,0.525610805,146.5714894,154.2816406,0.519038239,0.480961761,295.247797,284.2119033,0.509555789,0.490444211,233.0820276,228.6692269,0.708787865,1.039135302,6.474871636,4.387445501,5.438730629,6.45E-05,5.07E-05,4.61E-05,107289,106708,0.073994491,0.060907017,0.002497801,2.97E-10,2.12E-10,3
30.18130994,514.6847425,2022.926966,476.4535539,516.1447321,0.235526819,0.254425766,2185,263.1615,0.120440046,393,70.2247191,85.39325843,2017,4.238095238,0.04310838,0.028020864,0.000816948,1.538438665,0.59917529,0.389469729,-3.574805914,364.9694401,568.4194666,0.642077658,651741.4114,1.557444005,6.521045427,3541.125963,0.533707865,0.529069767,0.824175824,0.092592593,50.05752416,48.44937354,51.44275639,58.13953488,0.629423217,0.370576783,289.5529371,222.175261,0.372469528,0.627530472,346.9080017,450.2838309,0.447478689,0.552521311,319.5200033,355.047444,0.740095193,0.822072393,3.607920072,3.345361462,3.427003286,2.48E-05,1.93E-05,1.65E-05,145950,170476,0.00247665,0.001961304,6.47E-06,6.83E-11,4.56E-11,1
32.07313728,120.1384046,1871.344262,202.7491997,120.4590048,0.108344148,0.064198986,1907,216.4596,0.113507918,309.5,59.56284153,81.42076503,864,4.692307692,0.0176718,0.001468092,4.21E-06,12.03725525,0.92309389,0.07668641,-6.523791579,85.17737914,273.666997,0.311244615,73231.27107,3.212906992,5.571666682,3517.066432,0.426229508,0.414772727,0.616438356,0.081632653,49.11869097,49.21124103,49.02404308,46.59090909,0.457901082,0.542098918,57.64333564,62.71949304,0.521169275,0.478830725,197.5658279,189.3709821,0.515580665,0.484419335,145.52493,141.0586822,0.984427185,1.640130859,4.65680108,4.177061279,4.382786821,3.18E-05,3.47E-05,3.47E-05,142970,123719.5,0.024261607,0.012782755,0.000549861,9.21E-11,1.00E-10,2
31.04414672,147.4297213,1934.146893,219.0706375,147.8490684,0.113264736,0.076224677,1986,229.803,0.11571148,327,66.10169492,84.18079096,925,5.057142857,0.028467892,0.001515259,2.18E-06,18.78747218,0.949394017,0.050533356,-6.492168714,104.5450788,292.4991926,0.35742006,96067.86491,2.797828419,5.689548249,3273.450214,0.355932203,0.356321839,0.516129032,0.044444444,50.28475005,50.27244482,50.295907,52.87356322,0.518072113,0.481927887,75.24929995,72.57689518,0.420513495,0.579486505,189.6769861,222.6621175,0.431564904,0.568435096,144.2910535,165.5986478,0.910793989,1.341342973,4.50430391,3.980680681,4.203599387,2.91E-05,2.33E-05,2.33E-05,144251,121360,0.015715564,0.0110196,0.000140621,8.47E-11,6.77E-11,2
28.03334046,237.2471486,2143.726415,243.25231,238.3555145,0.113471714,0.110670441,2161.5,194.2206,0.089854545,261.25,63.20754717,78.30188679,1317,4.24,0.041011673,0.005851573,3.59E-06,7.00865727,0.875068028,0.124855303,-5.141044695,168.5428006,300.4658742,0.560938246,159094.5243,1.782727433,5.908625342,2142.595026,0.433962264,0.442307692,0.695652174,0.068965517,51.24349702,51.02668824,51.46930198,58.65384615,0.630275165,0.369724835,133.8224822,102.4951453,0.464297824,0.535702176,204.735653,219.9160157,0.504030701,0.495969299,172.9525142,171.5638493,0.669036092,1.316184795,4.320052464,3.962458723,4.085750102,4.37E-06,2.18E-05,2.18E-05,0,0,0.046891473,0.046891473,0,1.91E-11,9.54E-11,2
28.6147003,134.9887297,2098.099291,218.9820705,135.4670092,0.104371643,0.06433858,2149,191.2554,0.088997394,314,68.08510638,84.39716312,904,4.147058824,0.009283676,0.001541278,1.62E-06,6.023360596,0.857489378,0.142360625,-6.475143046,95.78964084,294.9736458,0.324739658,88767.0186,3.079389829,5.655221744,3633.355379,0.553191489,0.557971014,0.818181818,0,50.68513554,50.75487211,50.61352646,49.27536232,0.476161021,0.523838979,66.10222082,69.33268769,0.529130569,0.470869431,214.5678463,202.4106989,0.524077063,0.475922937,158.7590379,151.2896438,0.824759096,1.266493161,6.176735287,4.658332309,5.290107541,4.69E-05,4.02E-05,4.02E-05,136719,132878,0.059092166,0.046327483,0.00203019,1.57E-10,1.35E-10,0
26.7792056,148.6363676,2241.992857,173.4652121,149.1493588,0.077370992,0.066296539,2267.5,146.7774,0.064730937,202.75,60.71428571,80,798,5.185185185,0.027359814,0.002088533,7.68E-07,13.10001734,0.929053861,0.070920048,-6.171293539,105.464523,220.9887186,0.477239398,73219.43431,2.095384422,5.571596479,1852.225274,0.528571429,0.525925926,0.774647887,0.128205128,51.25125125,51.26613289,51.23558301,53.33333333,0.566374298,0.433625702,79.38340278,69.46010741,0.451916197,0.548083803,148.5590308,163.6038757,0.473154661,0.526845339,119.1039678,125.6800196,0.764181833,1.523216737,3.718783571,3.484892053,3.568319568,1.90E-05,9.52E-06,6.34E-06,116807,62945,0.001800405,0.000869082,5.89E-06,6.04E-11,2.01E-11,1
34.86098022,594.8392355,1767.45122,554.1161387,598.5447096,0.313511418,0.336551996,2060.5,211.2705,0.102533608,685.75,73.17073171,93.90243902,1840,2.827586207,0.059714391,0.06630601,0.001577706,0.900587901,0.467988059,0.519647287,-2.713474731,423.235023,662.2323325,0.639103533,880525.3266,1.564691711,6.651711962,4144.757766,0.573170732,0.592592593,0.875,0.076923077,49.88368126,49.49050348,50.35938172,53.08641975,0.544112459,0.455887541,312.1953715,285.7662834,0.455287776,0.544712224,446.8413713,488.7580701,0.481047096,0.518952904,385.4433558,400.3416165,0.69337285,0.934919552,6.322905922,3.886973275,4.948746841,4.07E-05,3.40E-05,3.40E-05,56209,55554,0.092819306,0.093848796,0.001636104,2.77E-10,2.31E-10,3
33.20130506,608.8120703,1849.77027,548.4824281,612.9950356,0.296513809,0.329128476,2089,362.4957,0.173525945,741.75,78.37837838,91.89189189,1959,3.7,0.050464228,0.04166289,0.000975552,1.211251267,0.542027723,0.44749404,-3.178144473,433.4529465,646.6259295,0.670330289,880531.6032,1.491801901,6.651715058,3858.551163,0.513513514,0.534246575,0.820512821,0.047619048,50.74225835,48.89742768,52.35818247,50.68493151,0.610944664,0.389055336,338.8163629,270.3766149,0.458700885,0.541299115,437.9433183,475.7423069,0.505904558,0.494095442,391.5296143,386.9329764,0.505746379,0.842443482,4.476603416,3.939542011,4.079209257,3.56E-05,2.85E-05,2.13E-05,58006,50008.5,0.012991775,0.012839482,9.17E-05,2.53E-10,1.52E-10,3
36.09906346,98.27738521,1662.682028,171.3453717,98.49989004,0.103053602,0.059107745,1643,155.673,0.094749239,205,48.38709677,80.1843318,953,5.864864865,0.028040295,0.001095533,2.88E-06,25.59511841,0.962303977,0.037597168,-6.816514326,69.64994019,232.3573623,0.299753533,50842.51884,3.33607411,5.413197168,3100.645522,0.33640553,0.339534884,0.465753425,0.019607843,49.24580273,49.17403415,49.32649075,56.74418605,0.629076743,0.370923257,55.24564594,42.42171997,0.383411657,0.616588343,143.8762449,182.4542956,0.403667543,0.596332457,108.9781061,132.4559781,0.886371433,1.248241484,12.84943717,10.2985906,11.00954788,6.05E-05,5.78E-05,5.78E-05,172473,168581,0.130823563,0.10347496,0.008526267,1.66E-10,1.59E-10,1
35.55318105,75.40710937,1687.884956,92.8809484,75.74458368,0.055028009,0.044675503,1690,81.543,0.048250296,108,47.78761062,74.33628319,547,4.913043478,0.03228762,0.003956439,1.05E-05,8.160778532,0.890580086,0.109129305,-5.532410991,53.55950876,120.3437316,0.445054412,20249.29613,2.24691627,5.013380042,1081.609154,0.548672566,0.550458716,0.733333333,0.148148148,49.59298685,49.59809925,49.58812505,51.37614679,0.525997946,0.474002054,38.84515344,36.87524622,0.490070605,0.509929395,84.24668108,85.93666543,0.496010539,0.503989461,65.59896805,66.12448204,0.750189473,2.341805806,10.53191402,8.788750556,9.346906424,5.18E-05,4.15E-05,4.15E-05,83711,94104,0.064711893,0.026484917,0.005185206,2.69E-10,2.15E-10,0
38.90941802,173.2157802,1544.430108,256.3033358,174.1648734,0.165953341,0.112155143,1549,249.0768,0.160798451,304,56.98924731,76.34408602,1169,3.444444444,0.018432606,0.003172468,4.26E-05,5.810178489,0.851481567,0.146549984,-5.753245434,123.153163,342.758646,0.359299946,132612.3166,2.783189953,5.829553972,3815.84968,0.333333333,0.340659341,0.580645161,0.055555556,49.94552837,49.78317248,50.09929636,60.43956044,0.632065024,0.367934976,97.90988793,74.70182486,0.48431764,0.51568236,238.5357968,246.1385039,0.501210502,0.498789498,182.3261809,181.8853014,0.548760512,0.978811089,12.74645728,10.11932536,10.95663303,6.17E-05,4.11E-05,3.43E-05,69401,69447.5,0.130821172,0.137554489,0.009714237,4.22E-10,2.35E-10,0
33.54786604,100.0148322,1787.231405,116.0618198,100.3800495,0.064939447,0.055960763,1775,109.7124,0.061809803,143,61.15702479,81.81818182,719,4.481481481,0.028311386,0.00529683,8.89E-06,5.344968001,0.842172098,0.157563543,-5.240646794,70.97941371,143.4057528,0.494955135,31977.82004,2.020385142,5.211818964,1158.939409,0.495867769,0.508333333,0.704918033,0.103448276,47.91710721,47.62039701,48.17335531,48.33333333,0.404939868,0.595060132,45.19202726,54.78314775,0.499715798,0.500284202,101.3743572,101.4319952,0.481050142,0.518949858,78.48273576,81.51577432,0.685040606,1.867745376,11.13044562,9.037696545,10.27769185,5.99E-05,6.45E-05,6.45E-05,115243,119926,0.160975253,0.151017115,0.006516469,2.76E-10,2.97E-10,3
35.92649273,86.39948131,1670.004608,126.4723472,86.59999771,0.075731735,0.051736074,1669,102.2994,0.061293829,141,48.84792627,70.96774194,810,5.292682927,0.023649271,0.003048533,6.90E-06,7.757591658,0.885584336,0.114157122,-5.793094904,61.23544563,166.9953575,0.366689509,32126.03686,2.727102837,5.213827263,1821.654054,0.488479263,0.485849057,0.669902913,0.046875,49.85884101,49.82086058,49.89522575,50,0.53950045,0.46049955,44.97795326,41.55453128,0.500469455,0.499530545,118.1389717,118.0281018,0.505095593,0.494904407,89.38633258,88.47997481,0.970758277,1.549403667,13.96884832,10.65682252,11.85847292,3.58E-05,3.86E-05,3.86E-05,124526,87456,0.156887963,0.174810056,0.012539508,9.87E-11,1.06E-10,1
34.74026586,86.34313154,1727.522613,109.0914186,86.5603037,0.063149054,0.049980898,1724,108.2298,0.062778306,144,51.25628141,80.40201005,589,5.527777778,0.023754183,0.00489423,1.08E-05,4.853507445,0.828849343,0.170773271,-5.31969825,61.20737773,141.9276451,0.431257615,27291.07503,2.318799635,5.142990753,1316.407087,0.527638191,0.532994924,0.771428571,0.134615385,49.59922092,49.59590399,49.60374142,45.17766497,0.479056199,0.520943801,42.36483433,44.17816949,0.590090742,0.409909258,109.0250759,90.86797725,0.572677987,0.427322013,82.70805992,71.44473371,1.00366842,2.007468042,9.368329957,7.827051872,8.249375194,5.50E-05,4.05E-05,4.05E-05,174177,173608.5,0.059114899,0.044115252,0.00248396,1.59E-10,1.17E-10,2
35.89741187,139.2924061,1672.558824,183.7014108,139.6355477,0.109832556,0.083281021,1678,179.3946,0.106909774,258,51.96078431,78.43137255,866,4.975609756,0.029609286,0.002776265,7.93E-06,10.66514982,0.914050643,0.085704435,-5.88664866,98.73724268,240.7905052,0.410054552,74691.33563,2.438699913,5.580240336,2348.863137,0.416666667,0.412060302,0.62195122,0.020408163,49.66519124,49.50050434,49.83822081,57.78894472,0.679528837,0.320471163,81.3933123,55.89581008,0.463397662,0.536602338,163.9140862,176.3866201,0.494508414,0.505491586,129.407687,130.8368857,0.937193544,1.460876304,10.63958695,7.342552228,8.220348611,4.66E-05,4.07E-05,3.78E-05,116553,111427,0.092637371,0.074153312,0.004542923,1.35E-10,1.10E-10,2
33.98966167,121.2273844,1765.828125,149.2016608,121.6600159,0.084493875,0.06865186,1755.5,118.608,0.067563657,159.25,53.90625,73.4375,797,4.571428571,0.037812587,0.005412237,5.15E-06,6.986498461,0.874684385,0.12519639,-5.219092748,86.02662227,190.019105,0.452726173,51354.6782,2.208840706,5.417550122,1678.887736,0.4609375,0.459677419,0.719298246,0.090909091,47.96208531,48.11741438,47.7982075,54.03225806,0.516907933,0.483092067,61.87410413,59.81598767,0.522874436,0.477125564,137.4029234,131.2543215,0.521858891,0.478141109,106.5550753,101.9942383,0.804997657,1.704748092,9.649628362,7.798906753,8.422416878,3.93E-05,4.37E-05,4.37E-05,92714,82126,0.142464144,0.135295321,0.013166695,1.72E-10,1.91E-10,2
34.12932316,88.87133268,1758.345238,130.6165475,89.12781782,0.07428379,0.050542596,1755.5,128.2449,0.073053204,174,51.19047619,70.83333333,595,5.6,0.029899625,0.001838246,7.21E-06,16.26530194,0.941866262,0.057906473,-6.298943447,63.02288438,173.6710294,0.362886571,34385.5145,2.755682022,5.243345637,1914.328534,0.452380952,0.457831325,0.644736842,0.066666667,48.95654531,48.9843922,48.93285715,45.18072289,0.468377578,0.531622422,43.13690031,45.95709104,0.594232334,0.405767666,133.8768602,110.6282639,0.579584338,0.420415662,99.4580461,84.70734026,0.848474122,1.662885747,12.71608222,9.711281534,11.07118005,6.70E-05,7.04E-05,7.04E-05,136846,132252,0.144572012,0.130561867,0.009380977,2.25E-10,2.36E-10,0
35.40561106,73.99974295,1694.989189,124.6951495,74.20159475,0.073566929,0.043657944,1684,114.1602,0.067791093,154,48.10810811,74.05405405,692,4.868421053,0.006233525,0.001793761,3.63E-06,3.475114728,0.776191158,0.223356988,-6.323440837,52.46845082,168.7711093,0.310885264,27819.30135,3.216620781,5.151316329,2171.490629,0.562162162,0.563535912,0.794117647,0.177777778,49.91960654,49.92747455,49.91054609,44.75138122,0.406301454,0.593698546,33.44435065,40.42793629,0.574167391,0.425832609,127.8843401,110.1330235,0.559373052,0.440626948,93.46905648,82.95691926,0.921729371,1.501659016,12.78668288,10.45740674,11.27740797,4.44E-05,5.08E-05,5.08E-05,130845,108102,0.113888851,0.090580596,0.00943324,1.41E-10,1.61E-10,1
32.6780784,132.9408968,1837.481013,156.517539,133.7994135,0.085180493,0.072349535,1818,155.673,0.085628713,211,62.02531646,86.07594937,643,4.647058824,0.037821809,0.005160564,4.02E-06,7.329006806,0.879855313,0.120051098,-5.266709406,94.6104726,198.8971006,0.475675474,59117.70102,2.102273618,5.478687647,1672.544509,0.506329114,0.519480519,0.8,0.083333333,49.64258361,49.57775715,49.70621035,46.75324675,0.515025578,0.484974422,67.89846315,65.88779325,0.577977561,0.422022439,151.2111935,129.210029,0.566361573,0.433638427,117.2071378,102.5583563,0.55854525,1.812378756,11.54361845,8.912850263,9.581952601,6.11E-05,6.11E-05,5.43E-05,80820,83620,0.163082267,0.109556871,0.021676641,4.15E-10,3.69E-10,3
35.51077046,89.22796439,1691.060976,143.8858728,89.7065277,0.085086153,0.052764487,1695.5,130.4688,0.076950044,172.75,52.43902439,81.70731707,646,4.555555556,0.011100538,0.001491016,3.09E-06,7.4449491,0.881369626,0.11838491,-6.508297548,63.43209405,192.4167826,0.329659883,38344.39324,3.033429456,5.29067198,2334.730944,0.451219512,0.469135802,0.631578947,0.095238095,47.39854318,47.22636497,47.56713718,53.08641975,0.469146772,0.530853228,43.48483931,46.25628336,0.460090288,0.539909712,130.5162182,141.3850594,0.460979412,0.539020588,97.27644743,105.1888273,0.546343592,1.679642171,10.71689974,8.301279629,9.227029706,6.40E-05,4.98E-05,4.27E-05,64104,59506.5,0.098860469,0.083719403,0.00483249,4.56E-10,3.04E-10,3
35.24304653,70.89669409,1702.966981,137.4291505,71.03197998,0.080699833,0.041631279,1710.5,135.6579,0.079308916,179,45.28301887,75.47169811,712,4.930232558,0.008376088,0.00216932,6.65E-06,3.861158399,0.793787426,0.205582715,-6.133341515,50.22719473,186.1775439,0.269781165,29377.58504,3.706707987,5.174986202,2760.423155,0.575471698,0.580952381,0.852459016,0.127272727,51.93183735,52.13845977,51.74713394,48.57142857,0.531757811,0.468242189,36.64371576,34.38569747,0.521190332,0.478809668,134.4081093,128.8275513,0.5219079,0.4780921,98.50964866,94.28391743,1.032237227,1.448973637,9.748073541,8.084771107,8.363044061,3.03E-05,2.75E-05,2.75E-05,192018,214062.5,0.015558391,0.008754192,0.000209374,8.32E-11,7.57E-11,1
37.56387329,71.7102011,1597.958333,131.7765103,71.97408497,0.082465548,0.04487614,1579.5,151.9665,0.096211776,191.75,45,70,605,5,0.014024607,0.002348569,9.82E-06,5.971555229,0.85604663,0.143354051,-6.05394927,50.89336355,179.1320486,0.284110878,28640.74561,3.519752599,5.16395443,2522.001974,0.475,0.487394958,0.724137931,0,52.13506965,52.14367817,52.12071879,47.89915966,0.563135275,0.436864725,38.2124414,33.65672925,0.498326854,0.501673146,126.4533789,126.8772391,0.503172297,0.496827703,93.40944201,92.81866523,0.786136234,1.380844756,15.09647864,11.45693499,12.35112276,2.59E-05,3.11E-05,3.11E-05,92789,99771.5,0.158489052,0.118763459,0.03441843,1.34E-10,1.61E-10,0
37.5623019,77.3465861,1598.1,119.4152466,77.76963211,0.074723263,0.04839909,1612.5,105.2646,0.065280372,139,45.55555556,74.44444444,549,3.6,0.027487235,0.003383484,2.55E-05,8.123945092,0.889662344,0.109511122,-5.688849452,54.99143424,159.4840679,0.344808325,27552.57694,2.900161999,5.147132334,1850.118532,0.555555556,0.573033708,0.823529412,0.263157895,51.27293149,51.34630863,51.19817936,53.93258427,0.579020814,0.420979186,41.85303019,35.68700744,0.412239658,0.587760342,102.3981686,122.2693051,0.429967894,0.570032106,78.22103636,90.0648252,0.642680542,1.791759469,17.89500575,12.16033806,13.40078121,2.74E-05,4.80E-05,4.11E-05,51299,44076,0.217064067,0.130508135,0.057313746,1.88E-10,2.82E-10,0
39.31323504,62.48742731,1525.560284,154.6718355,62.68916901,0.101386905,0.040960313,1570,134.9166,0.08593414,195,34.04255319,70.92198582,651,4.147058824,0.006006449,0.002473671,1.63E-05,2.428152006,0.706938921,0.291142778,-6.002051959,44.32793652,213.3387703,0.207781907,29709.62536,4.812738581,5.179867285,4106.974922,0.567375887,0.566176471,0.87012987,0.025641026,48.17914148,47.87272605,48.45261007,49.26470588,0.514596958,0.485403042,31.81030782,30.89480877,0.477313571,0.522686429,147.3912421,154.2376499,0.478857669,0.521142331,106.6209969,111.2289123,0.812554504,1.192799504,16.44738266,10.82423619,13.30841314,6.91E-05,5.99E-05,5.53E-05,110428,111671,0.461813077,0.474461503,0.065851722,3.19E-10,2.55E-10,3
35.00816336,85.19571306,1714.526066,146.1734555,85.38991893,0.085255896,0.049690532,1740,120.0906,0.069017586,161,51.18483412,79.62085308,750,4.795454545,0.013200439,0.002528937,7.42E-06,5.219757734,0.838826271,0.160702146,-5.97995615,60.37979072,195.7124096,0.308512837,37124.43392,3.241356211,5.27662995,2537.494538,0.526066351,0.531100478,0.828828829,0.107142857,50.98330241,51.18956541,50.80677984,48.32535885,0.486669794,0.513330206,42.12660344,43.26509472,0.549597385,0.450402615,145.0910731,131.3465942,0.544127363,0.455872637,106.8318075,97.7849585,0.92845727,1.341443795,9.6461356,8.147533657,8.70034758,2.76E-05,3.03E-05,3.03E-05,122701,85169,0.096236831,0.069664038,0.007381366,7.59E-11,8.35E-11,1
37.8337224,85.00157951,1586.382488,146.7471883,85.19738596,0.092504292,0.053582021,1591,149.7426,0.094118542,208,45.62211982,78.80184332,701,5.166666667,0.018115425,0.002034459,1.37E-05,8.904295261,0.898424128,0.100897837,-6.197525272,60.24364935,197.9909737,0.304274726,37471.97091,3.286503654,5.280676646,2602.792234,0.506912442,0.509345794,0.733944954,0.08,49.56515105,49.45126217,49.67679612,51.86915888,0.597266666,0.402733334,46.55901481,38.23212457,0.410181644,0.589818356,126.8041602,152.0563403,0.42603538,0.57396462,95.5171108,110.866645,1.003266925,1.353929077,10.77088464,9.122741608,9.741819669,1.45E-05,1.16E-05,1.16E-05,120480,72267,0.022852623,0.021961163,0.000278146,4.19E-11,3.35E-11,2
36.39624488,74.01465451,1649.245192,110.5915254,74.17899302,0.067055842,0.044877896,1657,104.5233,0.063079843,139.25,54.32692308,82.21153846,594,5.073170732,0.018371802,0.005318134,2.85E-05,3.454557666,0.774578261,0.22421923,-5.236632713,52.45246899,146.9288012,0.356992425,24211.55837,2.801179888,5.090992854,1646.296012,0.591346154,0.591133005,0.891666667,0.117647059,51.22765197,51.2396453,51.21518723,52.70935961,0.544212822,0.455787178,38.7024685,35.4189215,0.444474013,0.555525987,97.95579248,109.511348,0.455752324,0.544247676,74.47556092,81.38561098,0.968146179,1.637943405,11.54391332,9.921502627,10.69298385,2.62E-05,2.33E-05,2.33E-05,147195,106901.5,0.031223529,0.016485403,0.001222779,7.62E-11,6.77E-11,2
36.91305371,71.67216531,1625.957143,102.8356845,71.9253478,0.063246245,0.044079984,1634,109.7124,0.067143452,142.75,52.14285714,80,479,5.384615385,0.0091677,0.004161627,2.59E-05,2.202912695,0.68645135,0.311610783,-5.481849247,50.85890117,135.34025,0.375785483,21624.38773,2.661092687,5.04191393,1440.611798,0.635714286,0.637037037,0.953488372,0.175,50.78725741,50.87016318,50.70964719,51.85185185,0.494135392,0.505864608,35.75414236,36.17599893,0.464310069,0.535689931,92.22125439,99.05666815,0.468001218,0.531998782,69.93968279,74.56851347,0.768482478,1.638425449,10.68188641,9.343253826,9.733088,2.62E-05,2.62E-05,3.06E-05,121426,144925,0.05024745,0.034889929,0.003037685,1.15E-10,1.34E-10,2
35.56049899,71.80345139,1688.102857,103.4466976,72.00948103,0.061279855,0.042534998,1690,88.956,0.052636686,122,43.42857143,70.85714286,531,5.147058824,0.034002529,0.004041233,1.52E-05,8.413899671,0.893417983,0.106183579,-5.511205434,50.91839234,136.2569673,0.373693862,21796.32497,2.675987222,5.045353384,1458.487613,0.577142857,0.583815029,0.881188119,0.102040816,49.61993243,49.57370642,49.66346304,49.71098266,0.521098029,0.478901971,36.75713135,35.23750957,0.456238343,0.543761657,92.03533751,100.4761553,0.464186182,0.535813818,70.07706492,75.28990591,0.866191071,1.591633288,15.41967763,10.70341928,12.00038718,5.70E-05,6.70E-05,6.37E-05,128445,112828,0.310923297,0.198273611,0.089549446,1.91E-10,2.14E-10,0
34.92616733,94.85525466,1718.906593,171.0923858,95.09420905,0.099535592,0.055183484,1715,191.9967,0.111951429,245,52.1978022,80.76923077,804,4.666666667,0.015064459,0.001513765,4.61E-06,9.951652023,0.908437231,0.091285068,-6.493155621,67.24176007,231.1826633,0.290859873,48836.46361,3.438081677,5.395714318,3179.299515,0.527472527,0.528089888,0.787234043,0.056603774,51.54589758,51.73031814,51.38274378,48.87640449,0.58359118,0.41640882,51.38114656,43.40196488,0.486722597,0.513277403,161.2857572,165.627076,0.494281951,0.505718049,119.693604,121.0703491,0.975031119,1.437587656,11.38715907,8.385098927,9.076477527,1.90E-05,2.22E-05,2.22E-05,102582,82123,0.164799638,0.099371482,0.041969643,6.04E-11,7.04E-11,1
39.78957406,68.05013632,1507.552083,100.4617623,68.39071272,0.066638999,0.045139493,1508.5,110.4537,0.073220882,146.5,41.66666667,71.875,450,4.571428571,0.011549972,0.002795833,2.67E-05,4.131138424,0.803615243,0.194526341,-5.879625264,48.35953673,133.3180664,0.36273806,20254.47593,2.756810247,5.013491121,1470.130446,0.5625,0.578947368,0.872727273,0.034482759,51.54719937,51.46887656,51.62518973,58.94736842,0.584259242,0.415740758,36.97555259,31.19056049,0.344617337,0.655382663,78.26319391,107.9285843,0.372497383,0.627502617,61.20587803,79.44000999,0.620018824,1.658228077,12.31246027,8.825957591,10.3512615,6.11E-05,6.11E-05,5.43E-05,80709,83038.5,0.339233201,0.405599018,0.041215684,4.15E-10,3.69E-10,3
36.50032968,67.07135204,1644.261905,146.6001133,67.36399212,0.089158615,0.040791161,1673.5,160.1208,0.095680191,216.75,47.61904762,80.95238095,554,4.666666667,0.003611655,0.001187644,6.66E-06,3.041023827,0.751494792,0.247119008,-6.735783478,47.63353564,200.9887625,0.236996014,30076.99666,4.219480243,5.185204578,3392.27245,0.595238095,0.614457831,0.882352941,0.181818182,53.49537535,53.71021958,53.28147109,43.37349398,0.507334331,0.492665669,33.98609831,33.49117102,0.548165976,0.451834024,148.8085258,135.1018331,0.545987514,0.454012486,107.9329241,98.42297459,0.697621043,1.552279499,10.94670967,8.659433083,9.095284199,2.13E-05,3.56E-05,3.56E-05,30583,30583,0.300939346,0.257663808,0.051015553,1.52E-10,2.53E-10,3
36.99408535,81.89138049,1622.609865,88.2765173,82.07505084,0.054404031,0.050468928,1631,87.4734,0.05363176,122.5,53.81165919,79.37219731,464,4.847826087,0.033463624,0.007727061,3.64E-05,4.330705453,0.811689569,0.187426639,-4.863026745,58.03582501,110.5487821,0.524979325,20155.79802,1.904836919,5.011370108,842.3096059,0.412556054,0.418918919,0.602150538,0.012820513,50.36113382,50.35152882,50.3705756,42.34234234,0.445253685,0.554746315,38.72641597,43.22656821,0.558650526,0.441349474,82.62739643,73.44213084,0.534149668,0.465850332,64.52527387,60.25895278,0.954884371,1.894736194,10.76753583,7.527905375,8.301096913,8.25E-06,8.25E-06,1.10E-05,112583,112583,0.230914848,0.072552431,0.079966566,2.27E-11,3.03E-11,1
36.99081658,81.29307537,1622.694915,73.1841733,81.64159651,0.04510039,0.050097572,1632.5,80.8017,0.049495681,108.5,55.08474576,80.50847458,302,4.916666667,0.038484932,0.010469653,4.92E-05,3.675855475,0.785346741,0.213650059,-4.559274379,57.72932652,86.26736937,0.66919076,15645.62507,1.49434221,4.901363029,515.6518856,0.483050847,0.49137931,0.789473684,0.022727273,50.3185525,50.32821722,50.30845995,44.82758621,0.455512272,0.544487728,38.96301296,42.59871902,0.509764391,0.490235609,61.59299218,60.40167491,0.49298364,0.50701636,51.53548809,52.26381729,0.616099119,2.140066163,11.5639111,9.272349165,9.95524588,5.18E-06,5.18E-06,5.18E-06,0,0,0.323389348,0.323389348,0,2.69E-11,2.69E-11,0
36.74286762,80.05795315,1633.079545,75.55605692,80.51548703,0.046265999,0.049022691,1642,85.2495,0.051918088,121,55.68181818,79.54545455,336,5.176470588,0.020340811,0.014867995,6.24E-05,1.368093713,0.576697336,0.421533504,-4.208544352,56.93304687,89.7358847,0.63445128,16050.19998,1.576165156,4.912450558,565.7542988,0.465909091,0.482758621,0.666666667,0.033333333,50.77810806,50.73186938,50.82630891,43.67816092,0.480833275,0.519166725,39.48181801,41.02544588,0.641129814,0.358870186,71.85204537,53.75697703,0.595119035,0.404880965,57.97210699,47.81683693,0.500889553,2.174751721,14.70834898,9.481225649,10.46689548,6.85E-06,2.06E-05,1.37E-05,0,0,1.1190399,1.1190399,0,4.69E-11,9.39E-11,0
40.59763014,86.86418253,1478.472603,99.60883462,87.16527218,0.067372797,0.058752649,1473,100.0755,0.067939919,133.5,66.43835616,86.30136986,422,5.214285714,0.017290248,0.004534105,5.27E-05,3.813376343,0.790338915,0.207254371,-5.396127599,61.63515504,126.3492863,0.487815617,24465.33453,2.049954871,5.095521268,1036.041339,0.376712329,0.386206897,0.464285714,0,50.00467771,50.02357562,49.98661336,40,0.398070161,0.601929839,38.8873462,47.81910357,0.616681073,0.383318927,99.22088641,78.2263245,0.57465922,0.42534078,75.35585576,64.83064288,0.710826851,1.484924965,14.86881454,11.22414671,12.40419747,6.45E-05,6.45E-05,5.99E-05,109087,111049,0.344979251,0.342845262,0.060723454,2.97E-10,2.76E-10,3
36.43442177,85.7535406,1647.374429,112.885086,85.94986145,0.068524243,0.052054675,1654,123.0558,0.074398912,161.5,58.90410959,83.56164384,572,5.214285714,0.020671798,0.00412501,1.66E-05,5.011332592,0.833090486,0.166241308,-5.490686812,60.77572987,147.9283516,0.410845718,28244.34278,2.434003703,5.157901583,1440.232622,0.406392694,0.407407407,0.579545455,0.013157895,50.29635356,50.31545538,50.27634971,40.74074074,0.394321627,0.605678373,38.16460227,47.29949192,0.623707547,0.376292453,116.8266483,90.74321701,0.590579545,0.409420455,86.90512823,72.35873606,0.847493556,1.221304261,10.28097428,7.830517946,8.518175771,8.27E-06,8.27E-06,8.27E-06,41967,41967.5,0.280208681,0.344915717,0.046783321,2.28E-11,2.28E-11,1
36.82091408,78.87016161,1630.066667,84.27515502,79.05454677,0.051700435,0.048384623,1635,97.8516,0.059848073,131.5,66.19047619,85.23809524,367,5.12195122,0.044255413,0.004652406,2.34E-05,9.512371573,0.904440718,0.095080466,-5.370370815,55.90000611,105.0346601,0.532205332,18445.66692,1.878974035,4.972864472,789.4295962,0.385714286,0.389423077,0.50617284,0.01369863,50.65081264,50.68157125,50.62014162,39.90384615,0.40666341,0.59333659,35.64977209,43.06156148,0.649594846,0.350405154,84.65525442,62.17529825,0.595968766,0.404031234,64.95159101,53.47927537,0.810559596,1.194403353,13.90597989,10.23368741,11.1456099,1.16E-05,1.16E-05,1.16E-05,114873,93825,0.167515597,0.08626109,0.040695142,3.35E-11,3.35E-11,2
36.5239582,77.88220388,1643.379808,80.60474912,78.06444875,0.049048156,0.047391482,1655,88.956,0.053749849,120,56.73076923,83.65384615,383,5.2,0.048845512,0.007607192,3.85E-05,6.420964627,0.86465716,0.134661567,-4.878661145,55.19990108,99.51749831,0.554675329,17257.88705,1.802856461,4.943957732,717.6630593,0.389423077,0.396135266,0.56097561,0.014084507,50.78247847,50.78510674,50.77947072,41.06280193,0.425536422,0.574463578,36.01166208,41.84138449,0.552757893,0.447242107,73.98896063,66.55348357,0.522821634,0.477178366,58.18593516,55.5880726,0.86945712,1.352392809,12.75846469,9.580403353,10.58067239,8.73E-06,8.73E-06,5.82E-06,41861,41861,0.103572502,0.13557665,0.006170083,2.54E-11,1.69E-11,2
36.26858788,76.5635069,1654.832117,76.40118275,76.84648279,0.04616854,0.046266631,1661,91.9212,0.055340879,121,60.58394161,84.67153285,326,3.805555556,0.051042885,0.005196007,3.05E-05,9.823482649,0.907116746,0.092341665,-5.259864831,54.33866909,93.73947813,0.579677529,16002.2629,1.725097057,4.911151511,646.8387914,0.379562044,0.385185185,0.538461538,0,49.92063492,49.93030649,49.91126375,42.96296296,0.406108416,0.593891584,34.62823725,41.87578634,0.583456782,0.416543218,71.60228427,60.49960866,0.538851551,0.461148449,56.24056333,52.02780088,0.667523608,1.210729587,11.1046149,9.355612993,10.03968062,1.75E-05,4.37E-06,4.37E-06,142331,120874,0.011446467,0.004809774,0.000202175,7.64E-11,1.91E-11,2
36.23309849,86.73658948,1656.396648,106.6543519,86.98124475,0.064389379,0.052364625,1659,130.4688,0.078643038,175.5,56.42458101,80.44692737,441,6.172413793,0.028425013,0.004042619,1.93E-05,7.031336276,0.874966601,0.124438167,-5.510862554,61.505028,138.151592,0.44519956,26694.16787,2.246183711,5.133386497,1241.255422,0.374301676,0.382022472,0.544117647,0,49.95975531,49.97751036,49.94193944,44.38202247,0.392523986,0.607476014,38.53397503,47.93748872,0.544660595,0.455339405,101.9574282,93.22309376,0.519494661,0.480505339,77.0719936,74.12337025,0.818957485,1.360976553,11.44217721,8.782940701,9.702785395,2.01E-05,2.01E-05,2.35E-05,83304,93954,0.306623432,0.33346769,0.050230229,6.74E-11,7.87E-11,0
36.89090399,65.55817528,1627.026042,83.04540075,65.72290295,0.051041224,0.040293255,1631.5,88.2147,0.05406969,117.75,43.22916667,76.04166667,400,5.485714286,0.035385443,0.003733308,2.37E-05,9.478307785,0.904017251,0.095377495,-5.590460563,46.47311036,107.7044061,0.43148755,15724.79829,2.31756397,4.903555193,998.4474043,0.375,0.374331551,0.514285714,0.016393443,49.05660377,49.05328396,49.0606136,43.85026738,0.412759747,0.587240253,29.86072936,35.61718982,0.528200052,0.471799948,78.27673282,73.97967424,0.510077175,0.489922825,59.24065352,58.05848952,0.854551825,1.54384063,9.670349183,7.589200302,8.281748937,9.52E-06,9.52E-06,9.52E-06,25467,25467,0.145624,0.190596837,0.009812677,3.02E-11,3.02E-11,1
39.18445556,105.4142285,1532.4,101.8728243,105.9298971,0.066479264,0.068790282,1527,121.5732,0.079615717,165,71.57894737,89.47368421,408,5.277777778,0.04050538,0.012995641,8.75E-05,3.116843649,0.755859422,0.242507969,-4.343141322,74.90374858,121.6713794,0.615623403,28631.35204,1.624369697,5.163811967,790.5572066,0.410526316,0.419354839,0.564102564,0,51.81850918,51.77958212,51.86001984,39.78494624,0.414706719,0.585293281,48.25887851,57.33152035,0.577740635,0.422259365,92.48150504,79.06387155,0.532903177,0.467096823,73.76228077,69.0579431,0.529109782,1.386294361,17.83896925,12.11821815,13.51121973,6.79E-05,6.11E-05,5.43E-05,76962,79359,0.488629563,0.519035049,0.104054804,4.61E-10,3.69E-10,3
38.09104177,100.3974286,1576.170455,124.0747107,100.9241592,0.078719094,0.063697063,1578.5,133.434,0.084532151,180.5,71.59090909,86.36363636,528,5.5,0.053855188,0.00582888,5.91E-05,9.239370826,0.901444699,0.097565594,-5.144930333,71.36415737,159.4847973,0.447466834,35756.03104,2.2348025,5.260319416,1425.668094,0.397727273,0.413793103,0.583333333,0,51.93155995,52.02671897,51.83684947,41.37931034,0.44563813,0.55436187,47.66605003,53.16363506,0.591459866,0.408540134,122.6540607,101.9381281,0.567111095,0.432888905,93.04856507,81.29500002,0.56014454,1.504077397,17.68177519,11.76541318,13.57949985,7.12E-05,7.12E-05,7.12E-05,56354,50801,0.21305798,0.221189951,0.02798925,5.06E-10,5.06E-10,3
34.3580815,46.09545815,1746.536232,150.8329539,46.20659908,0.086361194,0.0263925,1759,158.6382,0.090186583,212,26.08695652,64.25120773,715,5.914285714,0.003106869,0.000208731,8.68E-07,14.88454708,0.936800529,0.062937792,-8.474463405,32.67299955,211.2859312,0.154638784,21687.49836,6.466683016,5.043179569,5465.276572,0.391304348,0.389162562,0.64556962,0.06,49.55529006,49.55393932,49.55992588,51.23152709,0.492295074,0.507704926,22.92516989,23.28120775,0.497944323,0.502055677,149.0942767,149.7085214,0.49781238,0.50218762,106.6645836,107.1322921,0.859417957,1.03399354,8.857871325,8.202812637,8.398487922,1.38E-05,2.75E-05,2.75E-05,95907,97323.5,0.043032458,0.028929238,0.001761798,3.78E-11,7.57E-11,1
