ECG_Rate_Mean,HRV_RMSSD,HRV_MeanNN,HRV_SDNN,HRV_SDSD,HRV_CVNN,HRV_CVSD,HRV_MedianNN,HRV_MadNN,HRV_MCVNN,HRV_IQRNN,HRV_pNN50,HRV_pNN20,HRV_TINN,HRV_HTI,HRV_ULF,HRV_VLF,HRV_LF,HRV_HF,HRV_VHF,HRV_LFHF,HRV_LFn,HRV_HFn,HRV_LnHF,HRV_SD1,HRV_SD2,HRV_SD1SD2,HRV_S,HRV_CSI,HRV_CVI,HRV_CSI_Modified,HRV_PIP,HRV_IALS,HRV_PSS,HRV_PAS,HRV_GI,HRV_SI,HRV_AI,HRV_PI,HRV_C1d,HRV_C1a,HRV_SD1d,HRV_SD1a,HRV_C2d,HRV_C2a,HRV_SD2d,HRV_SD2a,HRV_Cd,HRV_Ca,HRV_SDNNd,HRV_SDNNa,HRV_ApEn,HRV_SampEn
42.01778035531326,88.39425123159114,1428.5849802371542,176.03707923495836,88.5657219379152,0.1232247865336895,0.06187538890190287,1411.0,143.8122,0.10192218284904322,216.0,41.10671936758894,68.77470355731225,1106.0,3.953125,,,0.012279728894888828,0.0012398135935787133,4.442750002560782e-05,9.90449609400029,0.9053196744984107,0.09140492013993662,-6.692794238424644,62.62542256298201,241.0985173314941,0.2597503429557649,47434.582407142785,3.8498505473399844,5.38306519156086,3712.7730356460447,0.44664031620553357,0.4457831325301205,0.6666666666666666,0.11864406779661017,49.27827043821607,49.32075332691827,49.24217374067599,52.610441767068274,0.47978606540434227,0.5202139345956578,43.38066931387207,45.17138677599938,0.5568076154867357,0.4431923845132643,179.90661112333234,160.5057828664214,0.5519389547347423,0.4480610452652578,130.85922053107578,117.90369060557381,0.9069062121276645,0.9446452467074955
41.84634366221606,128.94120106984164,1435.7067669172932,185.78057201631825,129.43118408393838,0.12940008105918505,0.08981026212385998,1468.0,103.782,0.07069618528610354,141.0,53.383458646616546,78.19548872180451,979.0,4.925925925925926,,,0.058838402132177295,0.016415518590102207,0.00027664823184391093,3.584315768595584,0.7790011772308403,0.21733609076972327,-4.109528136075452,91.52166796275716,247.0431080748499,0.37046841207578896,71030.7731273516,2.6992854651138893,5.558416651694459,2667.359483532008,0.47368421052631576,0.4809160305343511,0.6825396825396826,0.02631578947368421,49.631840796019894,49.56709881374699,49.62588419590415,44.274809160305345,0.4694310150778498,0.5305689849221501,62.70669638078829,66.66516537749801,0.6199767035827601,0.3800232964172398,194.5182832179173,152.29226750310107,0.6018080322662103,0.39819196773378984,144.5155567353187,117.55249681747567,0.8921345265877978,1.1512560221535317
44.01148664471292,101.30270527107406,1363.8490566037735,175.38739665056733,101.72187445967434,0.12859736625643392,0.07427706517855853,1391.5,110.4537,0.07937743442328422,134.25,46.22641509433962,78.30188679245283,1067.0,3.6551724137931036,,,0.019762997622597936,0.0032316760386163863,4.408595844136063e-05,6.11540184920865,0.8578151753333539,0.1402712685911814,-5.734754378923823,71.92822722544238,235.8839898869393,0.30493051800555876,53302.514184668515,3.279435612219602,5.43371780436878,3094.265427150709,0.44339622641509435,0.4411764705882353,0.6666666666666666,0.07692307692307693,47.31332868108862,47.68881355201756,46.904037248683004,49.01960784313725,0.47893200684896553,0.5210679931510345,49.81050630601479,51.95546354626905,0.48675782416848506,0.5132421758315148,164.571616744753,168.98946608294798,0.4860912643869551,0.5139087356130447,121.58310650835378,125.01361893671329,0.7200330843516136,0.9852836033611063
35.8768751886729,126.1742656507261,1673.0232558139535,136.29348303364276,126.66061679911823,0.08146538463228578,0.07541692275481265,1659.0,158.63819999999998,0.09562278481012657,197.0,68.9922480620155,85.27131782945736,604.0,5.16,,,0.06466948691340016,0.004343500004760262,3.023593960840105e-05,14.88879632612538,0.9366522047590581,0.06290986754352425,-5.4390748031683485,89.56258104792724,171.08066939804473,0.5235108172247475,48136.821957986336,1.9101802046827465,5.389447524283226,1307.1796323520734,0.3875968992248062,0.3984375,0.5294117647058824,0.0,49.251576627915824,49.26873077752541,49.23828778620576,44.53125,0.44053229218654066,0.5594677078134592,59.44944255813036,66.995622139262,0.5691408326664167,0.4308591673335834,129.06569172578742,112.29711777702525,0.5414726425772949,0.4585273574227051,100.47932374655103,92.46365785229852,0.7209953666039937,1.8382794848629478
40.97304385179349,114.43242369117564,1465.719512195122,168.00835312495948,114.66650146131191,0.11462517332074214,0.0780725252949638,1467.5,140.10569999999998,0.09547236797274275,191.5,46.34146341463415,76.01626016260163,1208.0,4.823529411764706,,,0.03733215127395172,0.005802658062373106,0.00017706275785664928,6.433629359625584,0.8619380661443846,0.1339738455487505,-5.149439179794949,81.0814607582308,223.6490444468011,0.3625388204040258,56968.985281402005,2.758325298475803,5.4626085939329085,2467.587269110203,0.43089430894308944,0.43442622950819676,0.6698113207547169,0.06153846153846154,49.86104021326073,49.84348318479508,49.8443803235204,48.77049180327869,0.48731088039134457,0.5126891196086554,56.60115346678451,58.056289813294526,0.5846883313866374,0.4153116686133627,171.0130530201677,144.1299093827805,0.573376335674943,0.42662366432505705,127.37573331888845,109.8725706570429,0.9631767136412606,1.0849299826665315
42.67711232756751,62.26072229731684,1405.926530612245,97.50655038002513,62.38703384658004,0.06935394436120608,0.04428447784551295,1401.0,93.40379999999999,0.06666937901498929,125.0,39.183673469387756,64.89795918367346,566.0,5.6976744186046515,,,0.038694433488583604,0.004352694434175543,6.767317756034403e-05,8.889765655216006,0.897474475147164,0.10095592054449459,-5.436960215481538,44.114294691031404,130.5974337295915,0.3377883732567996,18099.38656480542,2.960433452337218,4.964633965713039,1546.5000464099026,0.4530612244897959,0.4453781512605042,0.7264150943396226,0.07142857142857142,49.51935567679916,49.483985789212014,49.55294777290354,48.739495798319325,0.4516044451445856,0.5483955548554144,29.646268476283844,32.66915460417426,0.4905560423982627,0.5094439576017373,91.47005869689261,93.21436616070542,0.4865666117609005,0.5134333882390995,67.99144384619612,69.84336661879031,0.994778955793596,1.398997425376144
45.160893357038404,60.0579797986912,1328.9338521400778,92.72594607831552,60.167412988962006,0.06977468888236406,0.04519260285376546,1324.0,94.8864,0.07166646525679758,131.0,37.35408560311284,64.59143968871595,495.0,5.586956521739131,,,0.017413506367095346,0.004109359669716983,0.00011876890038075537,4.23752306117674,0.8046298913012657,0.1898821268191102,-5.49448806073417,42.54478573094659,123.73918340032162,0.34382630111034024,16538.779575477318,2.9084453305946525,4.92547356903618,1439.5546006890431,0.5019455252918288,0.5,0.7380952380952381,0.12857142857142856,48.91080617495711,48.855626014229024,48.963230638207975,51.587301587301596,0.4675129036520097,0.5324870963479903,29.093931716856318,31.049896592925595,0.45517704298652994,0.5448229570134698,83.48287956115037,91.33451882370046,0.45648149393262866,0.5435185060673713,62.513390735772106,68.21323334657384,0.9384904129546014,1.208210915081004
41.67370296027351,67.23533106626117,1439.783439490446,94.342550863747,67.45076689953189,0.06552551465457596,0.04669822504004938,1438.0,94.8864,0.06598497913769123,127.0,45.85987261146497,75.79617834394905,451.0,5.413793103448276,,,0.037466460083540105,0.004524033756032372,0.00010862429355483915,8.281649099895002,0.8899583113608779,0.10746148510109672,-5.398351259210483,47.69489467089212,124.61272082030737,0.3827449906953606,18671.712228083794,2.6127056507865127,4.978154255286997,1302.305439388397,0.45222929936305734,0.46153846153846156,0.6805555555555556,0.06521739130434782,50.357057843370626,50.34443995484861,50.369026586371334,42.94871794871795,0.44097236008462687,0.5590276399153729,31.672670624943027,35.66117433342191,0.5486881200003358,0.451311879999664,92.30498523279861,83.71451422192388,0.5349242997206222,0.46507570027937783,69.00495766009605,64.34220716703541,0.8606436945810811,1.9412912031990188
40.521647142015446,72.80573466424194,1480.0646766169154,111.72274072909194,72.93615970120581,0.0754850396027721,0.04919091429886629,1472.0,94.8864,0.06446086956521739,125.0,42.78606965174129,70.1492537313433,749.0,5.2894736842105265,,,0.020011469433331902,0.0014622462143210678,2.3204223053577795e-05,13.685430837393811,0.9308993825018234,0.0680211966698375,-6.527781522585459,51.57365311842762,147.1687623463375,0.35043885873727404,23844.784684871123,2.853564823271227,5.084363515129893,1679.8224132634875,0.472636815920398,0.4666666666666667,0.7142857142857143,0.10416666666666667,47.48194863358012,47.41781547979425,47.52948114618712,42.56410256410256,0.37626623024426126,0.6237337697557386,31.658233030176604,40.76042271985789,0.5551804427349619,0.4448195572650383,109.65608010468856,98.15390316552308,0.5355866597293881,0.4644133402706119,80.70532703148794,75.15184883596807,0.9710663397641377,1.4914374618404542
36.62857789438969,118.23652143056307,1638.6966292134832,153.82645212989968,118.87668186451906,0.09387122020488378,0.0721527824752483,1608.0,136.39919999999998,0.08482537313432835,205.0,66.29213483146067,87.64044943820225,697.0,3.7083333333333335,,,0.03942743817126952,0.0009175794160220631,9.812938283431654e-06,42.96896539178849,0.9770190497091107,0.022737783905214116,-6.993771424809111,84.05850787135729,201.0030982192324,0.4181950856283587,53080.41392114621,2.391228482509427,5.431904410796405,1922.5773341378735,0.39325842696629215,0.40229885057471265,0.5428571428571428,0.08,48.476001401378014,48.49235154895193,48.46879479431064,47.12643678160919,0.47196172419931587,0.5280382758006842,57.76592679816169,61.10138550266128,0.5083871032627872,0.49161289673721265,143.31776076910216,140.93354796449566,0.5029621195213054,0.4970378804786947,109.26317506534436,108.61777997226243,0.5061428404726587,1.6625477377480489
38.50371148076354,108.82857662814988,1558.8539325842696,160.51653487199874,109.44120439980851,0.10297086309163955,0.06981319696049633,1574.0,160.1208,0.10172858958068615,200.0,55.0561797752809,74.15730337078652,745.0,4.045454545454546,,,0.0351442159046546,0.0020945979293482625,1.835508102302928e-05,16.778502170862826,0.9432873438346753,0.05621999712660688,-6.168393663192383,77.38661777232761,214.43868794644374,0.360879925695381,52133.739792578046,2.771004782471887,5.424088989943943,2376.8425193863686,0.3146067415730337,0.3295454545454546,0.4482758620689655,0.0,48.97713598074609,48.919149894843784,49.05071923780576,53.40909090909091,0.6062488366425455,0.3937511633574544,60.26083152506239,48.5646860963003,0.44367667763434326,0.5563233223656568,142.83559274415447,159.9435660901004,0.4624128394275472,0.5375871605724526,109.62065127216201,118.19575514638946,0.6716834062570167,1.791759469228055
31.83714920863749,639.3118738479764,1931.433155080214,540.5595463923526,641.0152432515084,0.2798748405920901,0.33100388287650845,2202.0,229.803,0.10436103542234332,764.0,79.67914438502673,88.77005347593582,1782.0,2.367088607594937,,,0.08669822984964269,0.05116077939880939,0.0004497883343641821,1.6946229292914237,0.626845373286755,0.3699025679705982,-2.972782067852563,453.2662253470859,615.8967502196489,0.7359451485747186,877023.326301617,1.358796918407123,6.649981254467345,3347.5144250216817,0.5614973262032086,0.5652173913043479,0.7788461538461539,0.12,49.374470292082535,47.59819091626297,50.932338291127586,57.065217391304344,0.6286483207415382,0.3713516792584617,359.39519014964947,276.223788043465,0.3443426724101677,0.6556573275898322,361.4126382693666,498.7080426765751,0.44423217900797285,0.5557678209920272,360.40532585099703,403.1186505927143,0.8712976778919486,0.9444616088408514
30.198011538140694,576.5938590211221,2026.0537634408602,535.0730012281421,579.743905683997,0.264096151288416,0.2845896142666466,2256.0,188.2902,0.08346196808510638,446.0,77.41935483870968,84.94623655913979,1829.0,2.3846153846153846,,,0.0679308095393732,0.037297410826488665,0.0008084796798483034,1.8213277553070428,0.6406348887704887,0.35174058425441895,-3.2888313695811346,409.9408470607286,639.6365890702318,0.6408964935176922,823766.9532610284,1.5603143567088258,6.622774475508563,3992.136612010185,0.6021505376344086,0.6195652173913044,0.8596491228070176,0.1111111111111111,50.45481927710842,49.01282191018896,51.81038228676278,47.82608695652174,0.606870009132174,0.39312999086782585,319.35672809605836,257.03740053681923,0.5225848972315082,0.47741510276849153,462.3935057949832,441.95838251584917,0.5471256056968288,0.4528743943031711,397.3641113522929,361.5213943536059,0.7814530482263402,0.8963754221732138
31.13810130905445,640.3566822916393,1976.3287671232877,591.021926994876,644.8504501748965,0.2990504094392949,0.32401323754636846,2329.0,151.2252,0.06493138686131388,843.0,69.86301369863014,76.71232876712328,1767.0,1.8717948717948718,,,0.052905450353522794,0.020591911217037715,0.0011517358732013303,2.569234579340499,0.7087219024098719,0.2758494331770184,-3.8828569396645785,455.97812616986727,703.9306693319553,0.6477599940383332,1008378.9460756956,1.543781661731987,6.710593879434861,4346.8610337815835,0.6301369863013698,0.647887323943662,0.8913043478260869,0.2777777777777778,49.98181637848382,48.41147325001937,51.55060885899601,56.33802816901409,0.62430102396752,0.37569897603248004,360.28073951795653,279.48855452893963,0.39930981706755175,0.6006901829324484,444.82058917823935,545.5758706809333,0.4658110894938488,0.5341889105061514,404.7638619148711,433.4552357406325,0.6501373877166761,0.5692544167731913
50.090053597127465,433.3715338640003,1221.5141242937852,472.91346877319756,434.5924826478548,0.38715350020746675,0.3547822536350554,1282.0,449.2278,0.3504117004680187,746.0,66.10169491525424,79.09604519774011,1998.0,3.54,,,0.012270566907041225,0.014110243473969634,0.0013655322408059804,0.8696212031831898,0.4422408774478596,0.5085442671235093,-4.260854257846753,307.3032915329951,594.9360104737664,0.5165316708401627,574364.1721656552,1.9359897107053543,6.466157451509332,4607.159979221219,0.5480225988700564,0.5542857142857143,0.8556701030927835,0.10638297872340426,49.36303212533629,49.57231347189756,49.5425096207264,53.142857142857146,0.5096466113942713,0.49035338860572886,219.3902198627563,215.19753052220915,0.43840297175965487,0.561597028240345,393.91906600995156,445.8437237332033,0.4534086175859212,0.5465913824140789,318.8293423899227,350.06185391666577,0.809101885718714,0.9062403960206536
28.475758410052535,180.90489864274315,2111.9473684210525,361.69885529194676,181.4208443472295,0.17126319561758888,0.08565786313983403,2185.0,183.8424,0.08413839816933638,244.5,67.2514619883041,83.62573099415205,1908.0,4.75,,,0.010844241710218116,0.0038688513133281147,0.00023806683088028986,2.802961611075598,0.725311067221819,0.2587659653831259,-5.554797634261175,128.2839092865151,496.14480648750606,0.25856142724683656,199954.1896467177,3.867552908598956,6.007900618313242,7675.46515766808,0.5906432748538012,0.5878787878787879,0.8556701030927835,0.1111111111111111,51.14651344998694,51.62714715800627,50.9133057507327,46.666666666666664,0.4033803066009122,0.5966196933990877,81.48427081671987,99.09807765079421,0.620830436810818,0.37916956318918194,390.926354743813,305.50982663613183,0.6072014018088281,0.39279859819117213,282.3677577414055,227.10865589550102,0.9244287323734377,0.9948039974957935
27.413344543089487,152.58060081016112,2190.184713375796,165.49404752081315,153.0642884066774,0.07556168505337266,0.06966563134073936,2202.0,133.434,0.06059673024523161,178.0,75.15923566878982,85.35031847133759,1104.0,5.064516129032258,,,0.022737411338619527,0.005504692755642351,1.5795060465573893e-05,4.130550486276189,0.8046391281290858,0.19480191098075436,-5.20215432223745,108.23279628985503,207.8728262423728,0.5206683251790649,70681.61635387142,1.9206084788355164,5.556276582397263,1596.9692504024133,0.5987261146496815,0.5906040268456376,0.8863636363636364,0.09803921568627451,49.31024531024531,49.381215094956445,49.251754743366966,44.29530201342282,0.42862500278786536,0.5713749972121346,70.86299821577572,81.81659268577296,0.7706410323555557,0.22935896764444424,182.48357700389,99.55328228570403,0.6976910748712709,0.302308925128729,138.4229395589179,91.11753632689688,0.9999493583292929,1.6265323457934007
30.708488805840698,224.79187053243555,1953.6914285714286,335.6247677037905,225.35450726191294,0.1717900599836305,0.11506006897763127,2027.0000000000002,277.24619999999965,0.13677661568820898,381.0,70.28571428571428,81.71428571428572,1767.0,3.8043478260869565,,,0.012942473567636737,0.002492741668725107,7.006491462978907e-05,5.19206371443057,0.8347139452884382,0.16076727698245974,-5.994372102463301,159.3497002558517,436.5522001817073,0.36501866257809523,218543.20353977766,2.7395859514061187,6.0465074149029165,4783.889098692947,0.5485714285714286,0.5523255813953488,0.8315789473684211,0.07142857142857142,47.720467293661166,46.87303050032942,48.32216152135746,45.93023255813954,0.4168299410142394,0.5831700589857608,102.91925394390468,121.73481080549519,0.5403738194488983,0.4596261805511017,320.9100596398174,295.96377667792103,0.5258385588599895,0.4741614411400106,238.3019504855144,226.289550429652,0.8837402975309989,1.1518163247315742
27.74803906044333,112.74507493933793,2162.904761904762,121.99807090290119,113.26752247114486,0.05640473545190385,0.05212669412223633,2178.0,130.4688,0.0599030303030303,178.0,76.19047619047619,90.47619047619048,564.0,3.888888888888889,,,0.006062982464704166,0.004198953830546189,6.86584638544447e-08,1.4439269183189636,0.5908185088635864,0.4091748005857694,-5.4729198726855675,80.09223322754619,152.25698309206948,0.526033234082371,38310.471429377714,1.9010205728625333,5.290287606187041,1157.7746288800279,0.6190476190476191,0.6346153846153847,0.9393939393939394,0.058823529411764705,51.18657531526164,51.13492597460603,51.23927495422568,41.34615384615385,0.45470581872342547,0.5452941812765745,54.01891973485205,59.15562821502755,0.6046070316181944,0.39539296838180543,118.3896719204081,95.73961814670486,0.5721072625073247,0.42789273749267526,92.01673246410746,79.57846075538099,0.5847741806524813,1.6665963262740486
33.43600625256873,639.0297283465706,1839.9375,600.4164873929873,641.0150736571491,0.3263243927540948,0.3473105626395302,2114.5,401.0433,0.1896634192480492,925.0,80.0,89.375,2057.0,2.962962962962963,,,0.05266580831727276,0.03480765857309688,0.0007697636901445326,1.5130523130900446,0.5968254785189426,0.3944513176150998,-3.35791784247486,453.26610542576435,718.7874189454519,0.6305982735351163,1023537.0880888244,1.5857956514755867,6.717073694000368,4559.399853196233,0.61875,0.6289308176100629,0.9,0.17777777777777778,50.75297722280033,49.23100404423925,52.20005112807819,52.83018867924528,0.617473603507088,0.3825263964929119,356.1929190335207,280.35402009295046,0.44812615970148056,0.5518738402985193,481.1722971175017,533.974319720463,0.4963117466232439,0.5036882533767562,423.3203131689723,426.45454077967656,0.8616960816023971,1.024253721349563
28.563024186215763,123.40320640628164,2101.798657718121,158.8298418019572,123.80127781667726,0.07556853327444574,0.05871314359875838,2113.0,157.1556,0.07437557974443919,210.00000000000023,64.42953020134227,81.87919463087249,884.0,5.137931034482759,,,0.02046365939301577,0.002700145386376609,1.0107121992870622e-06,7.57872501838742,0.8833940162589959,0.11656235238984328,-5.914449660615389,87.54072306373216,205.63892312361034,0.4257011354368506,56554.25986327655,2.3490658510314026,5.459435433024103,1932.2374878101798,0.5503355704697986,0.5454545454545455,0.8076923076923077,0.11627906976744186,51.19794637763834,51.10712349085993,51.29397654211196,46.15384615384615,0.4391337991548481,0.5608662008451517,58.02058044437371,65.5712210806967,0.48830860674051485,0.5116913932594852,143.69859121675867,147.09888369990108,0.4807621095354998,0.5192378904645001,109.5802739382941,113.88078551663277,0.8419840766078313,1.7657839828247943
45.95408282564103,653.463219504574,1358.7570093457944,510.44504889918227,656.4531741877466,0.3756705911272157,0.4809272114218563,1503.0,564.8706,0.37582874251497006,937.5,83.17757009345794,92.5233644859813,1827.0,3.8214285714285716,,,0.03817367179307714,0.08211451134249723,0.002721892012477024,0.46488338259550577,0.31032963557767446,0.667542973562666,-2.499640526102395,464.18249099958945,548.7519957004849,0.8458875678566926,800229.8369023082,1.1821902082493032,6.610184850157049,2594.916944297508,0.5981308411214953,0.6095238095238096,0.890625,0.12903225806451613,48.76765597300852,50.168723113435746,47.413627367953154,46.666666666666664,0.42037422512349526,0.5796257748765048,301.0110739934109,353.458376346528,0.5849690678735525,0.4150309321264475,419.7034736891296,353.52191863948565,0.5163045332628752,0.4836954667371251,365.2113583210335,353.49014892077753,0.7269845604482423,1.0678406300013559
33.947768759035945,212.31012633313028,1770.873417721519,212.1707323570776,213.66841867761633,0.11981134858868991,0.11989006340515151,1816.0,133.434,0.07347687224669604,182.0,54.43037974683544,77.21518987341773,1228.0,4.388888888888889,,,0.033883596692294723,0.01404321131797134,0.00020214021572107516,2.4128097146080325,0.7040169781644913,0.29178305023480094,-4.265616180187121,151.08638777234887,251.56463430849183,0.6005867565115404,119405.62809600042,1.6650383798144655,5.783994907386898,1675.459084510519,0.4936708860759494,0.5128205128205129,0.75,0.043478260869565216,48.93482387681924,49.496364268406325,48.334711536453895,41.02564102564102,0.3712231533583474,0.6287768466416527,92.06089176304883,119.81354562104283,0.8104494443487517,0.1895505556512486,226.47097566853165,109.52471143312164,0.69400372809692,0.3059962719030798,172.86455769252476,114.78446787086281,0.8174609071829257,1.450832882257462
37.27994238633757,65.01345152292537,1609.705357142857,69.9263723472601,65.15100688816399,0.0434404793628666,0.04038841719351723,1599.5,68.9409,0.04310153172866521,97.5,54.91071428571429,82.58928571428571,347.0,4.666666666666667,,,0.02357187451457878,0.018320412287381904,6.447939813974465e-05,1.2866454174076527,0.5618134248516599,0.4366497694318981,-3.9997394152196266,46.068718771752216,86.99955108077262,0.5295282354845813,12591.37094376839,1.8884734240561907,4.8070431284651525,657.1853604834325,0.53125,0.5381165919282511,0.9166666666666666,0.0,50.945353011567605,50.93869670377267,50.95197575812761,46.63677130044843,0.47618997098343335,0.5238100290165666,31.79466780611021,33.34656269007712,0.5657718870071152,0.4342281129928848,65.4391566214605,57.329213049961986,0.5461498755789027,0.45385012442109685,51.44503921773672,46.89686509869916,0.9125416511111935,1.729767793200087
39.21421423185872,46.904937594369606,1530.483870967742,51.93061096911427,47.09360264801565,0.033930844979292704,0.030647129632742288,1530.5,49.6671,0.0324515517804639,66.75,33.87096774193548,79.03225806451613,287.0,4.428571428571429,,,0.032892634994852274,0.02504057522671595,6.47278781091478e-05,1.3135734581591765,0.5671345580996654,0.43174940432675907,-3.6872577607011614,33.300205782916606,65.01586095046305,0.5121858773552,6801.678624439036,1.9524161914884306,4.539586217868692,507.7520784929777,0.5241935483870968,0.5327868852459017,0.9230769230769231,0.0,50.66666666666667,50.7004415157266,50.63404519633079,49.18032786885246,0.5077066912039141,0.4922933087960858,23.72917551226345,23.366204402870427,0.5136321773760751,0.4863678226239247,46.59565590176882,45.34211095895188,0.5124006298348098,0.4875993701651901,36.97451094610886,36.06859114527919,0.7622800137417229,2.3116349285139637
40.623612037460816,41.19061381755153,1476.9484536082475,60.403395864460826,41.341533213235486,0.04089742991158072,0.027888998913212656,1471.0,56.3388,0.03829966009517335,71.0,19.587628865979383,71.1340206185567,289.0,4.409090909090909,,,0.02964824876956656,0.009650788772294125,3.7179140864021515e-05,3.072106277435265,0.7537137851538017,0.245341051736998,-4.640715628910049,29.23287847972769,78.86497315810149,0.37066998578854793,7242.7853381425,2.6978175691043385,4.566875723722261,851.0532406914731,0.4948453608247423,0.5104166666666666,0.8775510204081632,0.0,53.28208160851566,53.21215487147721,53.3545321218304,46.875,0.5170432220039292,0.4829567779960706,21.053315778355625,20.34750728299609,0.5926058229057655,0.40739417709423464,60.71096235306705,50.33749140941118,0.5834525775157843,0.4165474224842157,45.43711618874311,38.39195289396024,0.6764472584428054,1.992430164690206
46.31062725451491,20.98657579588351,1295.487951807229,49.29180126697662,21.036075724623444,0.03804883032544894,0.016199746023578886,1296.0,45.9606,0.035463425925925926,62.5,1.8072289156626504,32.53012048192771,262.0,5.533333333333333,,,0.011372615309922719,0.004822548673531093,3.5106144125370925e-05,2.358216801904383,0.7007040068050301,0.29713298889193523,-5.334452720227321,14.874751794434953,67.83810779480513,0.21926837699287988,3170.1026560928553,4.560621160763516,4.208043435981686,1237.5356396605787,0.4578313253012048,0.45679012345679015,0.6891891891891891,0.0,47.71591720199856,47.75633383049701,47.676539396036404,51.23456790123457,0.4847396521356232,0.5152603478643769,10.363367707647088,10.684642500610568,0.4818424070169791,0.518157592983021,47.089733813634844,48.83201653158116,0.4819754861421338,0.5180245138578662,34.09429879674084,35.34633944205871,0.8985294509710946,1.348756441800825
37.20962289852383,70.47701021333032,1612.8973214285713,68.34686783290707,70.62832490978441,0.04237521317995063,0.043695906290493185,1610.0,72.64739999999999,0.04512260869565217,100.25,60.71428571428571,84.82142857142857,338.0,5.6,,,0.04079258977372609,0.018554990981827772,5.277621812585845e-05,2.198469932627679,0.6867398085132935,0.31237170830554917,-3.987016470493528,49.941767487555296,82.28076094312222,0.6069677396649051,12909.579030001823,1.6475340197686295,4.8178821904986915,542.2414113049751,0.47767857142857145,0.481981981981982,0.8317757009345794,0.0,50.81955270634515,50.83958715052034,50.80014616161309,45.4954954954955,0.4762364769153961,0.5237635230846039,34.46829068960431,36.147314953926774,0.5773708860997624,0.42262911390023783,62.52097467474939,53.4906659810716,0.5501389183468448,0.4498610816531551,50.482350070810476,45.65019017198586,0.9519243801720636,1.8662925210906218
46.100947911015304,29.48299761369209,1301.560606060606,73.26012382324421,29.537038660491906,0.056286371515943776,0.022652035930103464,1298.5,58.5627,0.045100269541778974,77.5,7.954545454545454,45.83333333333333,504.0,5.739130434782608,,,0.009026342606865138,0.0015691260082371498,2.4710976274236084e-05,5.752465104447458,0.849923725790328,0.147749479633213,-6.457236497278733,20.885840333003042,101.57046705163675,0.2056290665906363,6664.526140932216,4.863125707761866,4.530739385738026,1975.7997978727774,0.39015151515151514,0.39080459770114945,0.5196078431372549,0.02564102564102564,50.76422764227642,50.75419313116322,50.77176721279335,48.65900383141762,0.5266040277850682,0.47339597221493185,15.157443438886832,14.371303042697212,0.5125144566417895,0.4874855433582102,72.71441417330271,70.91666763547917,0.5130861224758073,0.4869138775241928,52.522062603108324,51.16496897128961,0.9195726014673982,1.145958409265308
45.47645948560971,27.525815930425367,1319.4092664092664,71.55164605608825,27.5791452196795,0.05423006179940963,0.02086222723396211,1310.0,66.717,0.050929007633587785,92.5,6.563706563706563,41.6988416988417,399.0,4.4655172413793105,,,0.009085693877448762,0.001103277775004218,7.2853554970298244e-06,8.23518254721847,0.8910812929062749,0.1082041943572032,-6.809469734510201,19.50140060416393,99.48626904458072,0.19602102673510824,6095.071725581858,5.101493531871678,4.49194893063664,2030.1142321638965,0.3861003861003861,0.37698412698412703,0.5684210526315789,0.02666666666666667,50.228227131641404,50.22924943117778,50.22655860695158,52.77777777777778,0.5396231820297832,0.4603768179702167,14.325632112006797,13.231991653293939,0.5115088159117606,0.4884911840882395,71.1524249321484,69.53308676224351,0.5125491288019914,0.48745087119800856,51.32198022842442,50.04965413366273,0.8854868042392265,1.030519372244149
45.17756330540158,30.157820173995646,1328.169590643275,79.00469389894967,30.246800120142158,0.059483890051032696,0.02270630225722097,1328.0,78.5778,0.05917003012048192,110.0,4.678362573099415,42.10526315789473,408.0,3.9767441860465116,,,0.007225187715992994,0.0008911595114625772,4.057206087036988e-06,8.107625652937223,0.8897571266460843,0.10974324231703322,-7.022987121306041,21.387717474146598,109.78314827408809,0.19481785511150895,7376.493978427078,5.132999741874915,4.574820102188717,2254.0674870124385,0.4093567251461988,0.4107142857142857,0.5942028985507246,0.018867924528301886,49.81353223228556,49.81843140899183,49.80936046391074,51.19047619047619,0.5048701928673989,0.4951298071326013,15.196932110203369,15.049622063704957,0.464077263792333,0.535922736207667,74.78781187288291,80.36866827462481,0.4655689154670212,0.5344310845329786,53.963707944765325,57.817012913575184,0.7684399769583323,0.9062013952211324
41.377865212446764,44.721910302263964,1450.3970588235295,63.16671343269451,44.83179149177181,0.0435513248240667,0.03083425330339511,1447.0,56.3388,0.0389348997926745,74.75,25.98039215686275,69.11764705882352,378.0,5.828571428571428,,,0.03642534104284168,0.010213196148375844,2.961086282845032e-05,3.5664977460199108,0.7805182455635012,0.21884725608884312,-4.5840746548156,31.70086377657321,83.49193178253569,0.3796877506576533,8315.061739404715,2.6337431172533483,4.626835588169553,879.5852027137578,0.45098039215686275,0.45544554455445546,0.7391304347826086,0.013513513513513514,49.66188801731134,49.64755413341182,49.675880522656875,44.554455445544555,0.44877219772911997,0.5512278022708801,21.236877136129255,23.536573604280274,0.6040707084256046,0.3959292915743955,64.89158740477774,52.53555516854927,0.5845028112252083,0.4154971887747917,48.28003244824385,40.7059876056176,1.0129461432543194,1.845826690498331
39.37682920850078,51.914376034239204,1524.0582524271845,66.99870042317616,52.03557992558795,0.043960721525227384,0.03406324919113913,1514.5,71.9061,0.04747844172994387,103.75,38.349514563106794,76.2135922330097,314.0,4.382978723404255,,,0.03404975809179973,0.012335740502454876,3.401425924038692e-05,2.760252461943703,0.7335225209981081,0.2657447212207463,-4.395254498175635,36.79471142835782,87.20502346018017,0.4219333929215573,10080.377055797206,2.3700423260547963,4.710446887129776,826.7183865809141,0.5194174757281553,0.5245098039215687,0.8411214953271028,0.01282051282051282,50.90151002929908,50.90913505487794,50.893390495074065,48.529411764705884,0.5021629115866901,0.49783708841330987,26.076950606640654,25.964389263064163,0.4977497893262356,0.5022502106737643,61.524351642000774,61.801863011741105,0.49841684419003884,0.5015831558099614,47.25067829095017,47.400526270949435,0.9854606108326927,1.780198646826979
46.44409545806428,30.0391114097224,1291.9469026548672,93.73384057951046,30.15123692586406,0.07255239390016222,0.02325104177887959,1276.0,62.2692,0.048800313479623825,83.0,6.1946902654867255,21.238938053097346,491.0,4.913043478260869,,,0.001687210387493639,0.0009719406894717637,9.362747749498706e-06,1.735919080011574,0.6322659346439388,0.3642254653020596,-6.936215774427545,21.320144091440703,131.13963015859792,0.16257590528245736,8783.628572143063,6.150972976362103,4.650644072714525,3226.545284942626,0.4336283185840708,0.4464285714285714,0.68,0.027777777777777776,46.710195881466596,46.55284818118591,46.888086724333704,53.57142857142857,0.6209789933012083,0.37902100669879196,16.813497366511633,13.135640260186978,0.4949346448549601,0.5050653551450401,92.25881710852416,93.19824710728058,0.49818512839564427,0.5018148716043558,66.31132266799466,66.55245415803529,0.5148319631285667,0.5663954749208019
41.74655979552338,36.71228223179086,1437.7731958762886,66.81558967827031,36.85133123830247,0.046471578319797376,0.025534126200910008,1437.0,75.6126,0.05261837160751566,101.0,18.556701030927837,58.76288659793815,310.0,4.619047619047619,,,0.01168871074370653,0.003166424408398698,8.301995206644991e-06,3.6914542196880245,0.7864069816328111,0.2130344668609415,-5.755152274581163,26.057826214355327,90.23058181535151,0.28879151270109554,7386.552922855245,3.462705640643318,4.575411923750237,1249.7677784421844,0.44329896907216493,0.45263157894736844,0.6511627906976745,0.0,53.30319888734353,53.39237415832571,53.21475843887844,45.26315789473684,0.5138884595171113,0.4861115404828886,18.707020916729295,18.19441788311083,0.5584932665156547,0.4415067334843454,67.43148569591133,59.95458807780224,0.5550503375323037,0.44494966246769646,49.48210734567012,44.30343933423347,0.5974096957912747,1.4622802680978126
39.38100774803593,109.23099842512268,1524.9240506329113,186.28068661901497,109.45674683003224,0.12215735370014015,0.07163045161481121,1559.0,80.0604,0.05135368826170622,106.0,26.160337552742618,62.0253164556962,1029.0,5.780487804878049,,,0.02362159187137829,0.004821638677580366,0.00022096081105730544,4.899079638881665,0.8240801763669616,0.1682112227420492,-5.334641434096162,77.39760793013494,251.83215112177876,0.3073380725430395,61233.429883078745,3.253745921309376,5.4939586963218385,3277.591338268216,0.5358649789029536,0.5347826086956522,0.8292682926829268,0.11666666666666667,51.26875852660301,51.37498389480702,51.278326303798835,44.34782608695652,0.4495728231952905,0.5504271768047098,51.89828431551102,57.425252062730074,0.6888779823974405,0.3111220176025595,209.01734519943844,140.46772492071344,0.6682226260683426,0.33177737393165735,152.28539409463212,107.30526855394685,0.7044304003827468,0.6999453032737665
37.91768584399246,44.13624738617153,1582.5702479338843,73.54259836383729,44.31121713049004,0.046470353186438586,0.027888965714977496,1599.0,66.717,0.04172420262664165,100.0,25.6198347107438,61.98347107438017,318.0,3.78125,,,0.008740586162443456,0.0031436043722999196,2.893840973290602e-05,2.780434535421097,0.7336935748098464,0.2638773060336515,-5.762385248115631,31.332762115599017,99.35837417957201,0.31535099456207694,9780.319234457185,3.171069751622901,4.697323140567439,1260.2893397250825,0.5619834710743802,0.5714285714285714,0.8823529411764706,0.029411764705882353,48.62228724701292,48.63357617990175,48.61315815116808,46.21848739495798,0.4422636795701593,0.5577363204298408,20.84194219888945,23.40518149915534,0.5322297934488638,0.467770206551136,72.48598877879914,67.95489644144597,0.5240888785206177,0.475911121479382,53.33200316818244,50.82160205747183,0.6885099102789125,1.2935849630156233
37.52730689236525,113.78781422747633,1596.7912087912089,161.02874253330032,114.2637311209812,0.10084520859505552,0.07126029602430937,1645.0,102.29939999999999,0.062188085106382976,149.0,35.16483516483517,67.03296703296702,853.0,3.5,,,0.041031636342460404,0.0061308525776670245,0.00015189830853331698,6.6926476901315715,0.8672126755898351,0.12957692018788852,-5.0944214558883285,80.79665911932216,209.13581415923227,0.3863358336980247,53084.98359522793,2.5884215565197595,5.431941797445642,2165.3265984402683,0.5054945054945055,0.5057471264367817,0.75,0.0,44.82299200609059,44.6579932905427,45.0600746599773,43.67816091954023,0.4053214221352624,0.5946785778647374,51.51180730798359,62.39476533791143,0.6858766338228858,0.31412336617711434,173.20140683129446,117.21374252068469,0.6493508608462367,0.3506491391537633,127.77361546985044,93.89400454043485,0.7106680458150767,1.0534300658748768
35.36229797876021,89.04934426645552,1697.4645669291338,139.3821852885189,89.40304209873364,0.0821119851359689,0.052460208007495436,1717.0,85.9908,0.05008200349446709,116.0,38.582677165354326,77.95275590551181,872.0000000000001,4.703703703703703,,,0.023782728172387278,0.004254438854434222,9.439958925782903e-05,5.590097539561426,0.8454107265677,0.15123362706727067,-5.459792404752503,63.21749732672093,187.43611931908112,0.3372748942753285,37225.492786432835,2.96494051876766,5.2778105655602685,2222.9477793988535,0.6062992125984252,0.616,0.948051948051948,0.023255813953488372,50.534075522792236,50.4550371848745,50.600184115627755,44.0,0.5156457519519032,0.4843542480480968,45.39643157782338,43.997454471821435,0.7483594655211746,0.2516405344788254,162.14681116662194,94.02505226742853,0.7245901757403853,0.2754098242596144,119.0638995907327,73.40465398696689,0.8408692294329119,1.078661502248761
36.706673897128226,44.27281127488764,1634.79185520362,88.79702148309845,44.371881230331425,0.05431701974808189,0.027081619677737676,1655.0,74.13,0.04479154078549848,106.0,23.981900452488688,63.80090497737556,484.0,4.604166666666667,,,0.0037959595701696257,0.0016744674638954826,8.863413162226265e-06,2.266965260309509,0.6927830540705286,0.305599325318264,-6.392260096258898,31.375658111971436,121.77062834596386,0.2576619545957315,12002.874459440707,3.881054157060121,4.786255373707932,1890.3936133997042,0.6244343891402715,0.619718309859155,0.9090909090909091,0.13793103448275862,50.58946816871889,50.57260388305585,50.60495898138006,47.417840375586856,0.5214531860914898,0.47854681390851034,22.657868289708766,21.705690182562034,0.4951333337196623,0.5048666662803377,85.68476888046554,86.52286581980547,0.4967720466554122,0.5032279533445876,62.670801070086,63.07671240629711,0.9486475610303504,1.355231769178709
39.001534081832986,58.77794524178986,1538.6995515695066,129.60652285114267,58.89602495355685,0.08423120856761232,0.038199754579661176,1570.0,111.195,0.07082484076433121,152.0,29.596412556053814,69.50672645739911,802.0,4.551020408163265,,,0.011952843356030416,0.0019703241529203256,1.5985286823789705e-05,6.066434976353739,0.8575014228736886,0.14135178671099746,-6.229557205138616,41.64577862959216,178.35383133675853,0.2335008915561715,23334.758045502713,4.282638894162156,5.074973412073995,3055.3002200225574,0.4349775784753363,0.43891402714932126,0.7422680412371134,0.057692307692307696,48.36322869955158,48.464880321563754,48.28702359819462,50.2262443438914,0.4620640020026702,0.5379359979973296,28.315929354404386,30.55238065684743,0.476571182923232,0.5234288170767681,123.12502514233582,129.03610865257866,0.47582075242316896,0.524179247576831,89.33522169756016,93.7650395936593,0.9359179278151215,1.148622709242771
40.45688852938035,59.01102702074984,1483.4782608695652,137.85045677705764,59.125427461688496,0.09292381318500369,0.03977882829651953,1512.0,142.3296,0.09413333333333333,221.0,30.434782608695656,65.21739130434783,611.0,4.791666666666667,,,0.005651439758650993,0.0012790907084531864,1.4086648917850038e-05,4.418326019649787,0.813787090668033,0.1841844823240402,-6.661605837513849,41.807990698713255,190.30533117136767,0.2196890147079782,24995.401842260606,4.551888956893229,5.104830233105752,3464.9949415874285,0.5130434782608696,0.5089285714285715,0.7631578947368421,0.07142857142857142,48.310094813162294,48.285796750970924,48.33979725226885,47.32142857142857,0.4547900989031245,0.5452099010968753,28.201615917370358,30.878085114703552,0.47896309436722867,0.5210369056327714,131.70491432294375,137.36788058141528,0.4778496074377184,0.5221503925622818,95.24052603058435,99.55749784868252,0.8406787915220337,1.0003230476927274
43.01184433874416,35.898691471733564,1395.2638036809815,142.53051777269954,36.008335989270634,0.10215309635115301,0.025728963495667074,1376.0,176.4294,0.1282190406976744,236.0,15.950920245398773,52.14723926380368,564.0,4.794117647058823,,,0.0025870266106560375,0.00024156914975790905,4.502162951452201e-06,10.709259080675874,0.913144084897335,0.08526678437960672,-8.328354791456238,25.461738557256872,199.18416976932627,0.12783013121345901,15932.823564526516,7.822881745541944,4.909262856875912,6232.776822757561,0.4233128834355828,0.43124999999999997,0.7246376811594203,0.05,49.38837920489297,49.46328640096419,49.308308538102395,48.75,0.4798488303029141,0.5201511696970856,17.63844967201761,18.364240839602022,0.5474122468117082,0.4525877531882919,147.3710149069658,134.0004382529649,0.5463258751074438,0.4536741248925565,104.95077641814146,95.63828415859824,0.6911741019961899,0.6703541710313887
38.43294863053912,126.10002748301419,1563.7947368421053,203.09888897360156,126.39133298311154,0.12987566986172064,0.08063719905955047,1618.0,137.8818,0.08521742892459827,204.0,30.526315789473685,63.68421052631579,1212.0,4.871794871794871,,,0.009355119543414957,0.003712841838700386,0.0001485048692349496,2.5196655149440863,0.707838189535661,0.2809254582949549,-5.595957701327802,89.3721686355651,271.4308211555865,0.3292631553597084,76209.88908651214,3.0370844223597846,5.58898143953031,3297.433274719826,0.5210526315789473,0.5055555555555555,0.7802197802197802,0.15555555555555556,52.87525261804152,53.69487829379946,52.305945470992924,47.77777777777778,0.4049339007696327,0.5950660992303675,56.891086689224444,68.96595675758701,0.6818167957615415,0.3181832042384582,224.12639631136986,153.1079656636935,0.6547179551148389,0.3452820448851614,163.5072433689133,118.73995187207234,0.7697793234048222,0.7564888134636705
36.33378063209664,61.149015753808946,1651.7301587301588,85.80219824637852,61.301474268775266,0.051946861775741135,0.03702118982971164,1669.0,62.2692,0.03730928699820252,84.0,22.75132275132275,65.60846560846561,655.0,5.108108108108108,,,0.0241804325746333,0.00632862512867095,0.00018256509205903236,3.820803426179762,0.7878512236337775,0.206200407546617,-5.062672265679321,43.34668815218364,112.89213877986951,0.3839655145227265,15373.384701279922,2.6044005572818474,4.893739604999556,1176.065396604127,0.5978835978835979,0.6021505376344086,0.8928571428571429,0.03571428571428571,51.529745042492934,51.65708885695135,51.41930524137268,47.8494623655914,0.36573680242400103,0.634263197575999,26.219048470030273,34.527676258437765,0.6634464537530468,0.33655354624695344,91.95315597626146,65.49238203255895,0.6251829286373131,0.37481707136268694,67.61220820483703,52.351755138228825,1.0001932750716764,1.3124012348150988
36.238904497064816,73.12679902492782,1655.8863636363637,110.71392480282488,73.51962316718043,0.06686082284033948,0.04416172548479699,1683.5,81.54299999999999,0.04843659043659043,115.75,25.0,52.27272727272727,602.0,3.52,,,0.019451404186199374,0.004099770000698624,0.00011043123120705693,4.744511078154321,0.8220661211481374,0.17326677240427735,-5.496824404235972,51.98622409179287,147.9731791514789,0.35132193813701207,24166.911506173394,2.8463921305421294,5.090191261754146,1684.7587706722807,0.5909090909090909,0.6071428571428572,0.9215686274509803,0.12,47.38182847438438,47.55455914030999,47.24749780728852,48.80952380952381,0.401324062033166,0.5986759379668339,32.9472799456033,40.240916929772325,0.5123103678780676,0.48768963212193245,105.91307496857509,103.33674225025996,0.5001074962164336,0.4998925037835665,78.4318261457457,78.41496570886676,0.7608792978757015,1.1799579281220622
37.3798004691852,40.19686847621488,1605.2441860465117,72.179830333527,40.42542326232807,0.04496501589038342,0.02504096811290378,1600.5,88.95599999999999,0.05558013120899718,114.75,18.6046511627907,59.30232558139535,333.0,4.777777777777778,,,0.006587945884118272,0.00209622769480328,1.203853214816181e-05,3.1427625445701004,0.7575649949628349,0.24105066298175018,-6.167615885406648,28.585090921128575,96.58676089895744,0.29595247480172127,8673.753037252038,3.378920891504517,4.645177162535249,1305.4360969769555,0.6395348837209303,0.6506024096385542,0.8703703703703703,0.15,48.58314690529455,48.691884598964556,48.467920986803556,45.78313253012048,0.4547407202458097,0.5452592797541901,19.28097384420591,21.112933296464334,0.5709725763051785,0.4290274236948216,72.98359078456967,63.26450708843669,0.5616076926253821,0.43839230737461804,53.37771293428782,47.160119855253804,0.5540381502196436,1.5505974124111668
37.69130639863632,38.63151311183312,1591.8854625550662,78.7430857205223,38.71378905670231,0.04946529607358509,0.024267771784175576,1599.0,74.13,0.046360225140712946,102.0,18.502202643171806,63.87665198237885,429.0,5.044444444444444,,,0.005141509052450663,0.002280129237456798,1.220101770119599e-05,2.2549200141766437,0.6916357537064655,0.30672296549685274,-6.083523154527127,27.374782767419756,108.0268713156763,0.2534071609592869,9290.355919398515,3.946218394991067,4.6750024623698385,1705.1905069570187,0.5242290748898678,0.5267857142857143,0.8220338983050848,0.0,49.17150545248548,49.19142100313859,49.15328603639016,41.964285714285715,0.42786875038914146,0.5721312496108586,17.9079125900629,20.70796948037156,0.5782238820774693,0.42177611792253067,82.14474972598785,70.15728770917889,0.5691498593670442,0.43085014063295596,59.44936181692161,51.724583220691606,0.9263354450082018,1.286075244962483
40.11808322820708,35.162660570734666,1495.5511811023623,41.60408799003789,35.29836904366627,0.02781856516563462,0.023511506001965422,1493.0,35.5824,0.023832819825853984,51.0,18.11023622047244,58.26771653543307,214.0,4.884615384615385,,,0.011188860249637948,0.007839237715460886,6.66166510074464e-05,1.4272893176297985,0.5859663511388753,0.4105449006736416,-4.848613679517785,24.959716115601722,52.67256265972693,0.4738656115299616,4130.227392023038,2.1103029543994922,4.322944072606636,444.6202583864564,0.5748031496062992,0.5873015873015873,0.918918918918919,0.023255813953488372,49.00442477876107,49.045388867843506,48.96221824965088,50.79365079365079,0.4750173312450252,0.5249826687549748,17.204883027791848,18.087122490877316,0.4718284027675734,0.5281715972324265,36.18066032296668,38.280003601579786,0.4724132908949737,0.5275867091050265,28.328856148862556,29.937457104244523,0.7230177895276624,1.8946168546677633
38.76226528996436,31.990827489739317,1547.8279569892472,40.99300673548503,32.14754863038773,0.02648421392725226,0.02066820627272179,1550.0,42.9954,0.02773896774193548,60.0,8.60215053763441,58.06451612903226,173.0,4.428571428571429,,,0.019461480044530514,0.008653697036791167,0.00010479736078115658,2.248920890318911,0.689634928070485,0.30665148384685526,-4.749768646251791,22.731749635071466,53.1548369740802,0.42765157282217064,3795.994087629947,2.338352209020935,4.286295637291417,497.1789218339524,0.6021505376344086,0.6153846153846154,0.9642857142857143,0.13333333333333333,47.925311203319495,47.928790362351045,47.92230516850688,50.54945054945055,0.4608513711578901,0.5391486288421097,15.44059869020913,16.700825800468145,0.5370990632656649,0.46290093673433486,38.955608088242585,36.16486267382043,0.5252988986339143,0.4747011013660858,29.630655489179098,28.167489013345445,0.6361965978482185,1.7917594692280552
38.78122849094527,43.84276913924463,1547.63309352518,121.54847210391226,43.99201479718317,0.07853829994488593,0.028328916797314085,1562.0,126.02099999999999,0.08067925736235594,177.0,18.705035971223023,61.87050359712231,520.0,4.964285714285714,,,0.00473285515198411,0.000646155065757239,5.611213177913058e-06,7.3246429577049055,0.8789578269713416,0.12000009175146924,-7.344471043114746,31.107051981147155,168.3963609796796,0.18472520308738052,16456.649893074118,5.413446477722752,4.92331153980322,3646.418748827102,0.4748201438848921,0.48175182481751827,0.7727272727272727,0.0,51.43229166666665,51.54871736940386,51.318059703157935,51.82481751824818,0.5896208277099623,0.4103791722900378,23.89178767376303,19.93218429582969,0.5076005818107803,0.49239941818921973,119.97582854715044,118.16570972842892,0.5103082843326432,0.48969171566735664,86.50149407329164,84.73614024259732,0.7465037203842422,0.9618533515527206
36.85118267561493,43.62297142978269,1628.3981900452488,81.50552014980943,43.72129076417475,0.05005257353396138,0.02678888474358383,1647.0,69.6822,0.042308561020036425,101.0,21.266968325791854,63.348416289592755,439.0,5.525,,,0.00507326359757119,0.0016571579450860296,8.77360059854504e-06,3.0614242973127204,0.7527996281051823,0.24589849527423566,-6.402651225173286,30.915621181576736,111.25784080186021,0.2778736398150541,10805.838615155262,3.5987580565957082,4.740628587039582,1601.5602037805486,0.5565610859728507,0.5555555555555556,0.9166666666666666,0.025974025974025976,49.53246059310714,49.53478319233908,49.53151744322539,46.75925925925926,0.4631579450235517,0.5368420549764482,21.04040470468632,22.652325573355125,0.5118333851535226,0.48816661484647744,79.59667609819505,77.7346531092221,0.508344198970924,0.491655801029076,58.21653320156552,57.25296563450827,0.9706879081772963,1.3377673202252303
42.73869228912756,41.83924752842546,1404.0245901639344,134.6041575443582,41.88020620290851,0.09587022797701981,0.02979951193272213,1386.0,137.1405,0.0989469696969697,187.75,26.229508196721312,61.065573770491795,570.0,5.674418604651163,,,0.0022324879366707605,0.0005767659908308539,3.1834693856402713e-06,3.870699680913527,0.7937911574997653,0.2050769170788321,-7.458073935536889,29.613777803567515,186.937722574156,0.15841520585455982,17391.643865624646,6.312525332436174,4.947310743605022,4720.196437349141,0.430327868852459,0.4291666666666667,0.6893203883495146,0.0,47.10419982857842,47.30879597151924,46.88209196521266,52.083333333333336,0.4580525040140864,0.5419474959859136,20.064204794847633,21.824430923255864,0.45928809770725854,0.5407119022927415,126.68918518633309,137.46113078988952,0.45925778511387727,0.540742214886123,90.69928874370126,98.41714348414884,0.9179258056009232,1.0445921871999393
43.687497898086505,69.28278890683946,1373.9397590361446,144.07858093910272,69.41341194516099,0.10486528247801613,0.05042636582221275,1399.0,143.8122,0.1027964260185847,204.0,21.686746987951807,54.61847389558233,963.0,4.882352941176471,,,0.010343810816883117,0.00407973833315347,0.0001852906064410348,2.5354103553224148,0.7080514941165418,0.2792650478176747,-5.501722426653754,49.08269429171863,197.53700957414375,0.24847340960325656,30459.778577627247,4.0245755133184025,5.190696851940666,3180.010446824967,0.5060240963855421,0.5061224489795918,0.75,0.10144927536231885,48.39620510503727,48.94991691210642,47.97348798779295,50.204081632653065,0.30463296332573386,0.6953670366742662,27.094190183513604,40.93499833967049,0.5168727042656529,0.483127295734347,142.01698024532948,137.30275843366385,0.5045280046691898,0.4954719953308102,102.23237701360246,101.31071404980294,0.9086622815545602,0.9569218824967989
44.561747907792395,36.601050596422844,1346.2603550295858,118.4945383606425,36.64359076988742,0.08801755018481432,0.02718720079640055,1325.0,97.85159999999999,0.0738502641509434,134.0,14.201183431952662,60.35502958579882,508.0,5.451612903225806,,,0.003595565614289273,0.0005131554895416153,5.690352939871439e-06,7.006776089448194,0.8738954895656671,0.12472148080794303,-7.574931660196914,25.91093152041217,164.15554178384033,0.15784378181110467,13362.522455244567,6.335377856042015,4.832858557995697,4159.949537455687,0.40236686390532544,0.40361445783132527,0.6417910447761194,0.075,46.27285513361462,46.581417448793985,45.941748599286576,51.80722891566265,0.4779679995023528,0.5220320004976472,17.946277114639937,18.755278698060344,0.5191720536236455,0.4808279463763543,118.27996906258811,113.82833925213599,0.5181668535918565,0.48183314640814356,84.59379393230407,81.57405008929395,0.8306228779086875,1.0335616036268975
37.4060643997229,39.039904334344655,1604.1945945945945,55.74714823056142,39.14510497224643,0.03475086402759611,0.02433614005800254,1610.0,56.3388,0.03499304347826087,72.0,21.08108108108108,61.08108108108108,370.0,5.4411764705882355,,,0.016616776753086437,0.006181156266461189,2.9665271646088644e-05,2.6882958522256883,0.7279248802751515,0.27077558434369836,-5.086249926880332,27.679769176134684,73.97444454399627,0.3741801556843344,6432.71113712227,2.672509444470966,4.515364159672356,790.7896067732951,0.5675675675675675,0.5714285714285714,0.9230769230769231,0.046153846153846156,50.502812340207925,50.504220984429146,50.50071981286679,48.35164835164835,0.5074045150960823,0.49259548490391786,19.717610225518317,19.427741980733256,0.45973212741716524,0.540267872582835,50.157298847563744,54.37337416336195,0.46558737341310796,0.534412626586892,38.108652434121076,40.82830498795475,0.9348149701891266,1.6004423495255222
36.223427138797945,40.004919910197,1656.5343915343915,49.82773657520064,40.1116274363459,0.030079506244990725,0.02414976719749344,1659.0,48.925799999999995,0.029491139240506326,67.0,15.343915343915343,57.14285714285714,278.0,5.4,,,0.027176322609433947,0.008215054869818578,2.9403921365540906e-05,3.308112123423238,0.7672423231453538,0.23192754493200507,-4.8017868482920125,28.363203764668558,64.6880754415755,0.4384610853090756,5764.071882562502,2.280704111506475,4.467699498135246,590.1374385001692,0.5343915343915344,0.5326086956521738,0.8367346938775511,0.031746031746031744,49.8442367601246,49.84746943064701,49.84121120713165,42.391304347826086,0.41334246229318594,0.5866575377068143,18.235242366667983,21.724453310906444,0.5503737751102907,0.44962622488970916,47.99025929227378,43.37605465455905,0.5282775865922319,0.4717224134077683,36.301439717391325,34.30330879851861,0.9017452463881459,1.6967416443446837
38.27731772667313,35.781644553548986,1568.010752688172,70.45095343318424,35.90991143306309,0.044930146883498265,0.022819769884999525,1560.0,66.717,0.042767307692307695,87.0,11.827956989247312,50.53763440860215,411.0,4.428571428571429,,,0.005367102672124152,0.0009137126035506894,5.913731429047875e-06,5.8739505740290525,0.8537194248486651,0.14533990609714698,-6.997994474084506,25.392141886127238,93.01069941381327,0.27300237549182627,7419.62778711755,3.66297178989177,4.577352228979964,1362.782272443604,0.5161290322580645,0.5274725274725275,0.8333333333333334,0.12,54.129190515126744,54.50440049901965,53.78328470832084,43.956043956043956,0.5832243823754139,0.4167756176245861,19.4283694236428,16.423649525494135,0.5884897542056173,0.4115102457943827,71.35137769965304,59.66549342633629,0.588123259457021,0.4118767405429788,52.289963846325634,43.75904117747807,0.5952311779153003,0.9939013345790789
35.68285670877706,34.60803446286304,1681.5731707317073,69.92147809124403,34.73930690794571,0.04158099053210924,0.020580748471268697,1699.0,62.2692,0.03665050029429076,94.5,17.073170731707318,63.41463414634146,291.0,4.315789473684211,,,0.0029800530378350006,0.002007788589784811,6.771002815588574e-06,1.4842464256430474,0.5966534861333616,0.4019908526138861,-6.210721366667109,24.56439948832908,94.68325118813547,0.2594376426673357,7306.833083080055,3.8544907736548137,4.570699296419468,1459.8228724972375,0.5609756097560976,0.5750000000000001,0.8478260869565217,0.037037037037037035,54.13310724883424,54.30320933050642,53.96860238328058,40.0,0.5063443797350927,0.4936556202649074,17.521950519277244,17.301011531121524,0.6446916597074311,0.3553083402925687,76.02373248122738,56.438552029426894,0.6359272971557729,0.3640727028442269,55.16623355992879,41.74107782016611,0.6744445455191022,1.6650077635889113
45.88173055083231,560.2572403576185,1348.4758364312268,484.2363702646442,561.2871137255182,0.3590990340221351,0.41547443804432754,1641.0,321.7242,0.19605374771480805,879.0,63.94052044609665,79.182156133829,1600.0,2.6372549019607843,,,0.0707913555259741,0.0894560366891892,0.00687456159415741,0.7913535871473419,0.42359099993974536,0.5352739999153843,-2.4140079845612252,396.88992430793877,557.1043402006192,0.712415782230335,694634.7223603999,1.4036746868090642,6.548726598341404,3127.973041004298,0.5650557620817844,0.5708955223880597,0.8300653594771242,0.1232876712328767,49.43823346887359,50.64505093503098,48.27872399628431,42.91044776119403,0.41198321757114964,0.5880167824288504,254.75575804028776,304.35406519996627,0.6144850168199992,0.3855149831800008,436.70904882884645,345.905265269801,0.5463065879385861,0.45369341206141395,357.5019507524941,325.7927635362062,0.7777221449355234,0.6222795243707269
35.47508337334212,22.413723474692908,1691.2212389380531,34.76778437856207,22.512394698430352,0.02055779786705692,0.013252981312348507,1691.0,34.099799999999995,0.020165464222353633,45.0,1.7699115044247788,38.93805309734513,183.0,4.346153846153846,,,0.0043719442028495245,0.002425217458413645,1.2585556914795315e-05,1.8027019340810988,0.6420127007327144,0.35613913126463204,-6.021834085040488,15.918666952008182,46.66910098909115,0.34109649885325954,2333.920207448489,2.9317216780644886,4.075056114174492,547.2832602619976,0.6637168141592921,0.6603773584905661,0.9285714285714286,0.2,49.14228052472251,49.13835533920885,49.14655915705111,50.943396226415096,0.49880922759748336,0.5011907724025166,11.243817119796258,11.270626736212456,0.4607189091762607,0.5392810908237392,31.677248647112386,34.27180919179791,0.46468937403136273,0.535310625968637,23.768377156154425,25.510624573949876,0.7379470844178555,1.9029851043382793
36.91755000047345,22.884343595964946,1625.438202247191,47.042281527119975,22.98986362891418,0.028941291931051803,0.01407887643118454,1630.0,47.4432,0.029106257668711655,70.0,1.1235955056179776,33.70786516853933,209.0,4.045454545454546,,,0.0035693479594575738,0.0013562120424620867,5.891545927688054e-06,2.6318509552368585,0.7237925638782048,0.2750127481337809,-6.60305972819188,16.256288470559188,63.82330082184088,0.25470773622219406,3259.496592273787,3.9260684219173108,4.220120641293676,1002.2985837566345,0.5955056179775281,0.6,0.8431372549019608,0.13636363636363635,52.985543683218104,52.87233745898621,53.10163848025697,47.05882352941176,0.5250081371378975,0.4749918628621026,11.792019510581342,11.216264872993568,0.5684108724235593,0.43158912757644063,48.11831928442814,41.92900042973866,0.5657610860584886,0.4342389139415115,35.03158842313677,30.69076143351753,0.617242613312353,1.0986122886681098
44.6674062905288,597.7983407547651,1388.9025974025974,489.90811155867505,599.7613782749878,0.35273035882779524,0.4304105571353345,1756.0,87.4734,0.04981400911161731,701.0,62.33766233766234,78.57142857142857,1343.0,1.75,,,0.053377261532824724,0.07674485196251138,0.005351116184875509,0.6955158576486492,0.3940059719460683,0.5664945919106659,-2.567268970171504,424.09533767203396,548.9120713505064,0.7726106963336009,731334.6532920316,1.2943129117231584,6.571086262323476,2841.8559253986564,0.538961038961039,0.5460526315789473,0.8072289156626506,0.08333333333333333,49.945959111598235,51.53772208293456,48.42264917972251,43.42105263157895,0.39725427279868614,0.602745727201314,267.2993590871872,329.25372655046505,0.5905175923946717,0.4094824076053281,421.8122633611893,351.2532940093431,0.5182762363566372,0.48172376364336256,353.11084158540814,340.4312654558791,0.61769567597703,0.5570669768497069
48.01216496751455,618.459851928687,1299.071942446043,491.28672343662424,619.5792359147681,0.37818284529459756,0.4760782153174513,1236.5,791.7084,0.6402817630408411,1005.5,72.3021582733813,87.05035971223022,1935.0,2.55045871559633,,,0.06076699346723774,0.11631273078776522,0.008516000285669212,0.5224449039728826,0.32741591228800654,0.6266994084892079,-2.151472760377314,438.1086791977122,539.2849051554085,0.8123881736898609,742249.637111431,1.230938647787064,6.577520103901761,2655.3065276958946,0.60431654676259,0.6072727272727273,0.8862275449101796,0.15384615384615385,49.99580245594487,50.85041074231847,49.16752973734325,45.45454545454545,0.4409415941397586,0.5590584058602415,290.9192047556369,327.57477296650603,0.5532126454249426,0.44678735457505725,401.11076129358736,360.4696465764583,0.5085757945894901,0.49142420541050996,350.37396201856484,344.41515499975804,0.8570906999846666,0.714664673035905
50.35705276161723,576.1176424187487,1237.6978417266187,469.3006265133966,577.1469271097194,0.3791722104473502,0.4654751935375847,1406.5,498.89489999999995,0.3547066477070743,993.75,70.50359712230215,87.76978417266187,1439.0,4.276923076923077,,,0.06453305495674473,0.09877117123464527,0.010709590933524443,0.6533592155492121,0.3708501774340148,0.5676053365563676,-2.3149495059300675,408.1045059002606,522.7728554094535,0.7806535891780747,670246.0938701679,1.2809779060298283,6.533204401597573,2678.641910606544,0.5503597122302158,0.5543478260869565,0.8496732026143791,0.10666666666666667,49.537249307996674,50.50805588253942,48.589128163873305,45.289855072463766,0.43039302717082545,0.5696069728291745,267.7405392853529,308.01308672555274,0.539994054875021,0.46000594512497917,384.1559094413611,354.56409236446126,0.49849152832889293,0.501508471671107,331.10478638607054,332.1052221724593,0.9188406757885268,0.9239161476484158
39.726357355907886,381.25339165527254,1532.9417040358744,327.5453633540564,382.11466546774847,0.2136711151452835,0.2487070386639767,1666.0,78.5778,0.04716554621848739,134.0,32.73542600896861,61.88340807174888,1648.0,3.982142857142857,,,0.05063441778231434,0.11717500926638272,0.008625917861032013,0.4321264243914274,0.28698568196877333,0.6641243528972828,-2.1440866560918024,270.195871143074,377.2602391637515,0.7162055342540199,320235.60496527574,1.3962472393369212,6.212439726677792,2106.994269775899,0.48878923766816146,0.4932126696832579,0.7614678899082569,0.04838709677419355,49.87541433306662,51.8103395049141,48.25596909792729,44.79638009049774,0.37690851431178285,0.6230914856882172,165.8811519163222,213.28237926084617,0.659288165323974,0.34071183467602595,306.32234335786853,220.2087873215669,0.5635501241973729,0.4364498758026269,246.3228923601518,216.77324940684275,0.548776624713355,0.43153862630053913
46.12732303735316,524.390780311964,1340.6153846153845,435.4392144993484,525.9177658490917,0.32480547328962184,0.3911567675037602,1602.0,197.1858,0.123087265917603,652.0,59.171597633136095,80.4733727810651,1218.0,2.6,,,0.06256043933880874,0.10974193965316356,0.00827290395545532,0.5700686495657843,0.3464507341075161,0.6077351111509188,-2.2096236725196867,371.88001857837156,488.9857189753579,0.7605130459793903,571279.8318557991,1.314901835394813,6.463819002203077,2571.872877450201,0.5680473372781065,0.5773809523809523,0.8350515463917526,0.0625,50.87899396894648,52.77596794113057,49.07669154077818,40.476190476190474,0.37467633597211425,0.6253236640278856,227.64839208560574,294.09584367933707,0.6444312263523544,0.3555687736476456,392.5404931199441,291.58016843228364,0.5455728082740439,0.4544271917259562,320.8674408209803,292.8407074609505,0.6671878992798717,0.6391603160738341
34.667324448399654,42.85136831049706,1731.0174418604652,52.28671225844832,42.97519944640002,0.03020576858096331,0.024755018218904374,1738.0,51.891,0.029856731875719217,72.0,14.534883720930234,49.41860465116279,323.0,4.648648648648648,,,0.00813656108471558,0.003967257816411341,1.5851033783855323e-05,2.05092823840616,0.671351705814873,0.32734041749632414,-5.529680149289136,30.388054951393816,67.53972063229972,0.449928644461423,6447.807093214389,2.222574651136132,4.51638214564379,600.4482840886615,0.5813953488372093,0.573170731707317,0.8297872340425532,0.10416666666666667,50.74658254468979,50.73622221757375,50.75569707315465,39.02439024390244,0.5020079809679711,0.4979920190320289,21.531713955984856,21.44541634832351,0.6308238147912513,0.3691761852087489,53.64302991739485,41.03704673061374,0.6091353629069456,0.39086463709305436,40.87290890431504,32.74099178952523,0.9597740217499275,1.5524212319938646
50.03699909861921,586.5031561647687,1242.563492063492,471.6478951384748,587.6749898584925,0.3795764950048723,0.47201061347036566,1184.0,736.1109,0.6217152871621622,923.5,75.79365079365078,87.3015873015873,1503.0,3.15,,,0.050490102824303246,0.09063763495664517,0.005508688433188245,0.5570545044390693,0.34432169501029264,0.6181113199273206,-2.4008857553141354,415.5489704626756,521.3455984621493,0.7970700657844823,680609.167668465,1.2545948504737694,6.539867904620217,2616.310012591112,0.5833333333333334,0.5846774193548386,0.8275862068965517,0.13043478260869565,49.99459848757651,50.66630197248983,49.341092664912516,48.38709677419355,0.4520735431681786,0.5479264568318215,279.4002290621824,307.5978868588014,0.49916013769480216,0.5008398623051983,368.3372651630501,368.9564908333521,0.4808670359061095,0.5191329640938906,326.90734842443896,339.66553558468473,0.9699380819169683,1.0471179805965936
51.06877799329508,616.3613085779026,1226.7478991596638,494.9503864622276,618.9670176871296,0.4034654445312474,0.5024351857460828,1191.0,781.3302,0.6560287153652393,1047.0,78.99159663865547,88.23529411764706,1487.0,4.103448275862069,,,0.06541833919543891,0.08402866555593645,0.007772069777859599,0.7785240758332765,0.41609670703966867,0.5344686438814477,-2.4765972817353283,437.675775537383,547.0834719283106,0.8000164472063154,752239.2274101499,1.2499743017684624,6.583326087018872,2735.361123330625,0.5546218487394958,0.5677966101694916,0.8208955223880597,0.08823529411764706,50.550149237915264,50.78018034683661,50.32815765173646,50.0,0.4966254278068549,0.5033745721931449,308.4486825123261,310.53751992641935,0.5101622718610357,0.48983772813896453,390.7578967876742,382.895013489609,0.5048792322042452,0.4951207677957547,352.0172748925232,348.5987253542812,0.8510840570125255,1.0828639316999704
41.637943472842586,547.4110310877209,1480.6559139784947,460.50158132721117,550.4057352204762,0.3110118812748683,0.36970846901008736,1742.0,157.1556,0.09021561423650976,646.0,55.91397849462365,78.49462365591397,1483.9999999999998,2.1627906976744184,,,0.037592909505695306,0.09741867481997621,0.004523767679335403,0.3858901753197189,0.26941494729125254,0.698164826476953,-2.3287373534474782,389.1956277783661,524.5429327351287,0.7419709684181235,641355.5621853305,1.347761627563397,6.514068975491421,2827.8353469998983,0.5806451612903226,0.5978260869565217,0.8909090909090909,0.13793103448275862,50.307696794703524,51.777717366132705,48.944728823726216,42.391304347826086,0.39650921139920964,0.6034907886007902,245.07465783325682,302.34799105055697,0.6082007275465737,0.3917992724534262,409.0764775862199,328.33172823840937,0.5330376479541984,0.4669623520458016,337.1981260523529,315.60737591216747,0.6236873901296023,0.5687901642114638
35.26523366760842,174.18725284053568,1703.7028301886792,203.30483122526874,174.59715647835515,0.11933115777165988,0.10224039647879499,1712.5,182.35979999999998,0.10648747445255473,243.0,68.86792452830188,87.26415094339622,1150.0,5.72972972972973,,,0.04022366422565239,0.010189834487367303,7.533870892528907e-05,3.947430576573063,0.796684302502263,0.20182351204106533,-4.586364674532282,123.45883332173368,259.18629509986044,0.47633241284677846,100527.31314645807,2.099374245862352,5.709254185023829,2176.516131252506,0.44339622641509435,0.44761904761904764,0.6914893617021277,0.05172413793103448,49.47372698825537,49.515719437946046,49.46543769247163,55.23809523809524,0.5594654664570862,0.4405345335429139,92.34632021441276,81.94508904777405,0.4420686201564103,0.5579313798435896,172.3284087255307,193.59869605376585,0.4637800158872243,0.5362199841127758,138.24782694678498,148.65304021910555,0.9651122450863503,1.6052625410236199
32.05677351480863,130.25713336350992,1872.0392156862745,153.30710275076694,130.82072609582022,0.0818931043036755,0.06958034440307315,1849.0,122.3145,0.0661517036235803,177.5,72.54901960784314,88.23529411764706,855.0,3.923076923076923,,,0.008255162418233474,0.003909335968988746,3.2679507912128126e-06,2.111653355894324,0.678445179576094,0.32128624600355393,-5.544387748310558,92.50422254210243,194.16756033165916,0.47641440405439106,56427.14848324288,2.0990129422825605,5.45845821393938,1630.2408884303297,0.6078431372549019,0.6161616161616161,0.9508196721311475,0.03125,47.74297340777893,47.643756986768224,47.843443824663126,49.494949494949495,0.48698778461759307,0.5130122153824067,64.5960912130138,66.29962292502121,0.47156733726113387,0.5284326627388662,133.33634067696258,141.14695087045092,0.4744229421178087,0.5255770578821914,104.76458071581975,110.26808636234122,0.6341747558632083,1.9568392195875035
36.983525157816906,84.29446493205718,1623.3258426966293,130.11216972646915,84.7029900629301,0.08015160376571717,0.05192701472184369,1643.0,108.2298,0.06587328058429702,142.0,50.56179775280899,80.89887640449437,566.0,4.45,,,0.012297320089423408,0.002375710126246134,7.5378483179730764e-06,5.1762712771925745,0.837659689722063,0.16182685274106803,-6.042458885662593,59.89405866027462,171.9771555918243,0.34826752689426355,32359.691898782214,2.871355847953079,5.2169744879423305,1975.2304456916854,0.47191011235955055,0.4886363636363636,0.6744186046511628,0.07407407407407407,52.6360400067808,52.87524441957756,52.4124983390694,45.45454545454545,0.5675311735853342,0.43246882641466583,45.160696471014774,39.422410337035565,0.5037964814745205,0.4962035185254797,122.06701560245759,121.14365747889538,0.5107015046861726,0.48929849531382746,92.03218133848004,90.08305108105945,0.6803892429054486,1.6422277352570913
40.843879100278926,60.91888331894788,1469.0068493150684,138.75403673905865,61.11937552964771,0.09445431571932655,0.04146943450083409,1482.5,160.8621,0.10850731871838111,205.5,43.15068493150685,71.91780821917808,573.0,5.615384615384615,,,0.0026515693909035854,0.0008929214712012746,8.686108048023612e-06,2.96954376887852,0.7462531174712346,0.25130227925654225,-7.021011919139027,43.21792489890103,191.3376853053461,0.225872518683038,25978.513620784615,4.427276084007715,5.1215844089406,3388.4190324870133,0.4863013698630137,0.4930555555555556,0.7605633802816901,0.07317073170731707,51.166077738515895,51.08750890250685,51.2416669452628,48.61111111111111,0.4961467057911844,0.5038532942088157,30.447016821576025,30.682570604316858,0.5133148638170054,0.4866851361829944,137.0857889628105,133.48256920831065,0.5124812126213587,0.48751878737864135,99.29636037864014,96.84786115692059,0.8324459397519473,1.4190841839428814
33.781080007853554,126.20973036816123,1776.8522167487686,195.70547135258872,126.49374209743861,0.11014167048213204,0.0710299535203305,1748.0,158.63819999999998,0.090754118993135,214.0,65.02463054187191,85.22167487684729,1010.0,4.833333333333333,,,0.011680698779344164,0.001241746200633675,3.0866350096407674e-06,9.406671647864428,0.9036919429913505,0.09606925561141631,-6.691236663668489,89.44458281476108,259.66171646431104,0.3444658074077497,72964.5383640547,2.9030457551808153,5.570081949059115,3015.2393750587303,0.49261083743842365,0.48989898989898994,0.7319587628865979,0.029850746268656716,48.526816747767505,48.66739646327465,48.36888105319079,47.97979797979798,0.5580837738999146,0.44191622610008524,66.83519122490524,59.473770296104746,0.45678049252489933,0.5432195074751004,175.4937676394186,191.3795822884824,0.4675302906292214,0.5324697093707785,132.78743401833603,141.70969245282384,0.9069016211130028,1.301394917333404
40.25216043048332,402.5674351248606,1511.84140969163,363.59720913400776,403.45429464348666,0.24049957012896653,0.2662762327742909,1635.0,198.6684,0.1215097247706422,322.5,68.72246696035242,84.58149779735683,1523.0,4.283018867924528,,,0.07595687164111793,0.08613545050770852,0.006251968040810662,0.8818305493662023,0.4511995717559161,0.5116624413615593,-2.451834215846034,285.2852676412448,428.3887842623908,0.6659494322020013,383943.4911620634,1.5016155156006976,6.291237419531368,2573.100980630904,0.44933920704845814,0.4508928571428571,0.693069306930693,0.045454545454545456,49.529903835841694,50.29028605206489,49.085626569854476,51.78571428571429,0.47095609031935565,0.5290439096806443,195.7838263663949,207.50686200166436,0.5557877839301306,0.44421221606986944,319.3688764139365,285.5179000691707,0.5297240083335252,0.47027599166647477,264.8846785759483,249.57921491751546,0.9097761087097807,1.0501903808092286
36.133410515984146,109.58513785648303,1661.4611650485438,174.5807687746652,109.84999075409736,0.10507664725919993,0.06595708654633599,1689.5,148.26,0.08775377330571174,226.0,54.85436893203883,76.2135922330097,940.0,5.282051282051282,,,0.01703452151890211,0.0026762485609085626,1.893234461938326e-05,6.365074518010778,0.8633947513475585,0.13564566273410852,-5.92333925578736,77.67567337550179,234.30528477900498,0.33151481601776467,57176.423229718435,3.01645643477489,5.464187093789248,2827.0867358935707,0.4563106796116505,0.45812807881773404,0.7311827956989247,0.016129032258064516,50.5564287959761,50.436886858926044,50.663363265936546,53.20197044334976,0.5941734282493679,0.40582657175063225,59.87632269610287,49.48444992433204,0.40113621085580875,0.5988637891441909,148.39798985104298,181.3201673381656,0.420251750473075,0.5797482495269248,113.15285549078754,132.90168145635724,0.9537625577685693,1.489398234113225
35.894011782978666,99.605115854948,1671.6888888888889,150.02678699459108,99.96350360827478,0.08974563867222235,0.05958352449249807,1703.0,123.05579999999999,0.07225825014679976,180.5,64.44444444444444,87.4074074074074,738.0,4.354838709677419,,,0.025246876350333017,0.0033057919916374837,1.4615650725839656e-05,7.637164229993577,0.8837688720001441,0.11571950600843467,-5.712079200002715,70.684871272577,199.89924209801046,0.3536024975918631,44390.23985269833,2.828034323315853,5.3542576016062595,2261.2876714319955,0.4444444444444444,0.4552238805970149,0.7540983606557377,0.024390243902439025,51.087158520721054,50.991820285008394,51.17808667773321,52.23880597014925,0.5571451997009261,0.4428548002990738,52.76882481333511,47.046129977551416,0.3716642196569077,0.6283357803430925,121.86711335164264,158.45539963881595,0.39228393998790734,0.6077160600120926,93.90458505537035,116.87910852791771,0.8131752783985307,1.660731206821651
35.20985448135305,113.46049196523968,1704.655172413793,184.44789214108144,113.78075831393883,0.108202465299714,0.06655920434898252,1708.5,194.2206,0.11367901668129939,266.0,59.77011494252874,81.03448275862068,876.0,5.4375,,,0.016943492871225277,0.001755815361446161,3.771372582040702e-06,9.649928599138082,0.9059199462780474,0.09387840925154232,-6.344821936537798,80.45514577233378,248.48724820771855,0.3237797768402132,62806.96467458992,3.088519022895938,5.504977915355526,3069.830372146413,0.4885057471264368,0.48823529411764705,0.6987951807228916,0.08163265306122448,49.17815482502652,49.12479939533073,49.24003051896486,52.94117647058824,0.545496834866134,0.454503165133866,59.427109936028664,54.244654650385,0.44061796474210685,0.5593820352578932,164.94350034638896,185.84820207719284,0.45057095135443836,0.5494290486455616,123.97164938377655,136.89783923324836,0.8622262001871634,1.5280922729801478
35.1166404890057,151.01731943466208,1709.6284153005465,196.12460622307503,151.4338872535817,0.11471768044320732,0.08833341683088122,1711.0,185.325,0.10831385154880187,252.0,66.12021857923497,81.4207650273224,965.0,4.945945945945946,,,0.025372886950928254,0.0029071804873607885,5.566512169045394e-06,8.727661409822682,0.8970238035098852,0.10277940004642203,-5.8405715721773115,107.0799285784467,256.2773358206329,0.41782831960369426,86212.08453482653,2.393327481843474,5.64253825605269,2453.422363172599,0.3879781420765027,0.38888888888888884,0.6,0.019230769230769232,49.95322245322246,49.84152647514386,50.06389732674996,54.44444444444444,0.6443894019708322,0.3556105980291679,85.95721986202695,63.85508887857418,0.3804430029580028,0.6195569970419974,158.07201923671687,201.72087048629473,0.4196739557846031,0.5803260442153968,127.23090605662962,149.61414031674798,0.9215533570033583,1.5522794985941515
37.70535652152323,103.4791444366126,1591.901098901099,148.6685392217686,104.05886166797835,0.09339056259487201,0.06500350085067785,1590.0,173.46419999999998,0.10909698113207546,231.5,64.83516483516483,82.41758241758241,608.0,5.352941176470588,,,0.020693789292155422,0.0028973281084287276,1.9929325661754357e-05,7.14236997596314,0.8764452305772757,0.12271070156360643,-5.843966308607185,73.58072672798038,198.2041558362527,0.3712370531159268,45817.005565817104,2.6936966329374683,5.367996811822197,2135.6074688413087,0.4175824175824176,0.43333333333333335,0.5897435897435898,0.04,50.01353546291284,50.00069241232099,50.02389222210041,53.333333333333336,0.5293053748311219,0.47069462516887794,53.532464160555165,50.481668716520204,0.4967804690786525,0.5032195309213473,139.69955184496678,140.60200071505733,0.5007200161914543,0.49927998380854566,105.78678912034736,105.634562245227,0.5529243006121027,1.8082887711792657
34.439810013039526,143.20623464439544,1743.0632911392406,162.99043087942405,143.90662325659724,0.0935080393855899,0.08215779390936398,1760.0,160.1208,0.09097772727272728,185.5,73.41772151898735,86.07594936708861,760.0,4.388888888888889,,,0.042154649535042485,0.009348702190931178,1.8052896814042336e-05,4.509144550131794,0.8181968221494811,0.1814527817977285,-4.672517748424549,101.75734916239763,202.17841845041937,0.5033047045392325,64632.42523193836,1.9868679767567128,5.517420562419924,1606.807300841827,0.5949367088607594,0.6,0.8444444444444444,0.2,53.66768221232715,53.58692927055011,53.75453155833662,46.666666666666664,0.5926347783794461,0.4073652216205539,78.45893954677946,65.04903245534574,0.5064076064232993,0.49359239357670087,143.87485703572884,142.0427344148988,0.5238793143563365,0.47612068564366344,115.87877217561594,110.47061831871427,0.5923700679653212,2.751535313041949
35.218137707753385,73.76649160031178,1703.4319248826291,77.84170751483114,73.93125660268831,0.04569698758005527,0.04330463138724753,1702.0,77.09519999999999,0.04529682726204465,105.0,50.70422535211267,80.75117370892019,473.0,5.325,,,0.015176427386961375,0.011647673935184705,5.3162988625211776e-05,1.3029577812199216,0.5646567006032416,0.4333653083329913,-4.4526487811214865,52.27729288540361,95.63879714976531,0.5466117772637827,15707.138316524542,1.8294519832810376,4.903067178098547,699.8663484970039,0.6103286384976526,0.6161137440758294,0.9384615384615385,0.028169014084507043,48.988817511301455,48.921252781044075,49.05120027817062,45.497630331753555,0.42782271451815507,0.572177285481845,34.198161032568386,39.54905766368281,0.5415898914654088,0.45841010853459124,70.38326027992994,64.75319445881873,0.5154124744125955,0.4845875255874042,55.33225797688832,53.652139541247095,0.8874850367660176,1.737537915061416
38.08652433936292,67.7643583638391,1574.0737704918033,71.0290556346034,68.01269124802296,0.045124349929553234,0.0430503065575299,1582.5,62.2692,0.03934862559241706,80.5,42.62295081967213,83.60655737704919,512.0,4.88,,,0.022418460067460042,0.02429722736770737,0.00020234284868547977,0.9226756505252803,0.4778218508285393,0.517865460691972,-3.7173930352398923,48.09223518822398,81.98372814431391,0.5866070777309421,12386.610993436814,1.70471860630817,4.799922608575235,559.0367471284908,0.6147540983606558,0.6186440677966102,0.9315068493150684,0.07692307692307693,47.97542145895698,47.683280865111506,48.22584489258228,47.45762711864407,0.34476533971164425,0.6552346602883559,28.252064821295217,38.94814929278839,0.48878310022931515,0.5112168997706847,57.3173039878478,58.617901224842726,0.45188584407951704,0.5481141559204828,45.18546504741331,49.76452892040048,0.7742897249766125,1.7255100836868544
35.46745538125072,74.18830609944374,1692.2941176470588,88.12921027151685,74.63167157952361,0.05207676925217375,0.04383889616220736,1681.0,83.0256,0.0493906008328376,126.0,50.588235294117645,83.52941176470588,467.0,3.8636363636363638,,,0.026766746655994912,0.009550035608840962,3.360604508139216e-05,2.8027902462704484,0.7363538025450004,0.2627216943989421,-4.6512103958220035,52.77256106516848,113.63362733888071,0.46440972008918613,18839.306594251342,2.1532710379273676,4.982035023926491,978.7359947337734,0.611764705882353,0.6309523809523809,0.9433962264150944,0.041666666666666664,49.530148786217694,49.52695944632507,49.53395070326574,52.38095238095239,0.4677285390458721,0.532271460954128,36.09258509438165,38.502386094107976,0.43349618372500487,0.5665038162749951,74.8168655392803,85.52799479158196,0.4395697335203295,0.5604302664796705,58.737713897963076,66.32296596205808,0.6363995162467186,1.7255100836868544
32.604490837839194,102.63061667095677,1840.646551724138,83.50633970313088,103.07805726067325,0.04536793857838176,0.05575791646409379,1843.0,91.9212,0.0498758545849159,119.25,63.793103448275865,87.93103448275862,473.0,4.0,,,0.05111170010375596,0.04220019342296796,3.5727296292688245e-05,1.2111721761904959,0.5475415404604871,0.4520757256682295,-3.1653304744680217,72.88719328055728,93.14342589763451,0.7825264378901092,21328.155928824137,1.277912095463835,5.035923417143182,476.1164422701063,0.5948275862068966,0.6086956521739131,0.9285714285714286,0.02631578947368421,50.35401915868388,50.353318979769845,50.35416476578954,45.21739130434783,0.44827210435069764,0.5517278956493024,48.80106412414715,54.14033097974642,0.6563415504318649,0.3436584495681352,75.46006186864794,54.602901486349175,0.5773179872395926,0.4226820127604075,63.54433411748563,54.372108149879764,0.6077021197456269,1.7578579175523739
35.07537151140485,77.81684846331098,1711.0236966824646,86.71839705722324,78.0006527071323,0.05068217186317357,0.045479702364258016,1718.0,81.54299999999999,0.0474639115250291,105.5,54.976303317535546,77.72511848341233,486.0,5.702702702702703,,,0.019838474955378608,0.014201776440280018,4.397439005001382e-05,1.396900946779546,0.5820427044494227,0.4166671271798334,-4.254388220771283,55.15479046619008,109.60477711140774,0.5032152057581214,18991.64549411033,1.9872213489523731,4.985532704928003,871.2358120918235,0.6113744075829384,0.6190476190476191,0.9461538461538461,0.029850746268656716,50.45705220216061,50.44637223186985,50.46715654162062,44.285714285714285,0.474517692409922,0.525482307590078,37.99455387817988,39.98289107790191,0.5555226646577983,0.4444773353422018,81.69215908361862,73.07255510722285,0.5391541620897051,0.4608458379102948,63.7071227577622,58.8991930710663,0.9129248383192312,1.749199854809259
34.89642856331947,78.4841628552887,1719.57,103.2600031048132,78.67451077543491,0.060049898000554325,0.045641737675865886,1708.0,90.4386,0.05295,122.5,47.5,80.5,678.0,4.651162790697675,,,0.016934847537990474,0.007215371707711417,2.2312916889447544e-05,2.3470512988113117,0.7005822734698155,0.2984946574557755,-4.931541569343026,55.631280075844124,134.69185637143437,0.413026307414102,23540.206292581704,2.4211532826101454,5.07878037438838,1304.43852077821,0.59,0.595959595959596,0.9322033898305084,0.047619047619047616,49.11348966418825,49.145169506338924,49.0824050723417,50.505050505050505,0.5105747870970059,0.489425212902994,39.75489932325349,38.92280627710248,0.4672682844423743,0.5327317155576258,92.07134571183391,98.30952889519443,0.47358040210372426,0.5264195978962759,70.91397859868694,74.76546101001423,0.9809527898115804,1.807507826196194
34.49187092039993,80.10267645659667,1739.8832487309644,106.1671361080815,80.30660046654283,0.06101968978982794,0.04603911010409574,1745.0,80.0604,0.04587988538681949,110.0,48.73096446700508,80.71065989847716,676.0000000000002,4.925,,,0.0184466731713818,0.006153445665447733,1.666957894824334e-05,2.9977794839339977,0.7493533624215039,0.2499694745519188,-5.090743083252289,56.785341763931186,139.26278537676467,0.4077567572004455,24843.981308360897,2.452442497497151,5.102191303789258,1366.1358927112099,0.6294416243654822,0.6282722513089005,0.9333333333333333,0.09090909090909091,49.63235294117647,49.60516863850331,49.65841710500863,47.12041884816754,0.514279330355226,0.485720669644774,40.72323723971428,39.57637860630687,0.5624733028491836,0.43752669715081643,104.44461039010686,92.11648468842915,0.5556024796020689,0.44439752039793107,79.26871605754464,70.89335827474724,0.949537279535912,1.452252328911688
34.34615820754485,71.12337789869748,1747.4153846153847,88.24101813135815,71.38676778864608,0.05049802062420348,0.040702044015912174,1742.5,86.73209999999999,0.04977451936872309,112.5,51.53846153846153,70.0,423.0,4.642857142857143,,,0.026251200338920182,0.008403742240359929,1.2842654512184608e-05,3.12375125129919,0.7572217308341901,0.2424078199310065,-4.779078167535918,50.47806759034104,113.81103413037586,0.44352525197614895,18048.32750322624,2.254663055923986,4.96340707300271,1026.4221360410493,0.5846153846153846,0.59375,0.9210526315789473,0.07894736842105263,51.23079015367876,51.19839948285829,51.262847588065085,42.96875,0.4568792324278103,0.5431207675721897,34.12620190191109,37.207925063082996,0.5996717965673507,0.4003282034326493,88.13353329325591,72.0099423626497,0.5761920747599955,0.4238079252400043,66.82857677297733,57.31431534342939,0.7419631359393586,1.754019141245208
36.417718741781236,65.12253169278827,1647.7388888888888,71.02657964113372,65.29510466808534,0.043105482379570896,0.03952236129882327,1645.0,68.9409,0.04190936170212766,91.5,50.55555555555556,81.66666666666667,366.0,5.625,,,0.01669875085511483,0.01585764601259625,7.296144297384621e-05,1.0530409647087886,0.5117707402062699,0.48599319243748185,-4.144103496704431,46.170611289088534,88.78582027478005,0.5200223543151008,12878.316928940218,1.922994255347075,4.816829218619453,682.9384893787195,0.5777777777777777,0.5842696629213483,0.8942307692307693,0.03333333333333333,51.04495871138749,51.029286476954496,51.060609571774215,43.82022471910113,0.4862875743121395,0.5137124256878608,32.20174292163409,33.097319895569534,0.5851758316038695,0.41482416839613034,67.91829921080924,57.18414565398817,0.5641212772208383,0.4358787227791619,53.15001229952831,46.719691236384456,0.8870039738396649,1.8230120127321594
35.99097403760663,84.37286737253335,1667.723404255319,114.67050255054258,84.59667440539911,0.06875870558508224,0.05059164316891504,1676.0,120.83189999999999,0.07209540572792363,165.75,53.191489361702125,78.19148936170212,552.0,4.476190476190476,,,0.01497754019562302,0.00458725764815852,1.732506744368099e-05,3.265031385720292,0.7648578381170983,0.23425742290326085,-5.384472895736223,59.81888213788815,151.0571488033207,0.3960016630247237,28387.650439276298,2.5252419203541745,5.160099558722808,1525.8233781092954,0.5797872340425532,0.5792349726775956,0.9056603773584906,0.07272727272727272,50.51103179753408,50.495376939546034,50.524532877420725,51.36612021857923,0.5653652461065556,0.43463475389344447,44.97971466319896,39.43795317378469,0.4743931220367921,0.5256068779632078,104.0424271472408,109.51454496047393,0.4867259171508654,0.5132740828491346,80.14986393585365,82.30670601001263,0.9129429591471658,1.5626457509273413
32.80541967359657,86.22451314253196,1829.5443037974683,95.52054383251998,86.78074921835162,0.05221001953013878,0.047128956081337436,1813.0,100.8168,0.05560772200772201,129.5,51.89873417721519,77.21518987341773,429.0,4.388888888888889,,,0.03179553144591474,0.009042832710838363,6.358534154512584e-06,3.5161030246424816,0.7784489488771263,0.22139537534065268,-4.705782800693995,61.363256248745614,121.19075652540282,0.5063361101791889,23362.95468797893,1.9749727106093753,5.0754978766358345,957.3937476631025,0.5443037974683544,0.5641025641025641,0.8636363636363636,0.0,50.4196871423121,50.437690338602835,50.40146520709566,44.871794871794876,0.44223009325681484,0.557769906743185,40.807673711769375,45.82951184383438,0.5610669420217558,0.4389330579782441,90.77721130286591,80.29132814491425,0.5368162573915948,0.463183742608405,70.37673026537749,65.37217118590469,0.5104909800739259,1.9252908618525775
34.101034682175246,91.73449704837294,1760.0379746835442,118.67143209654756,92.3223379573659,0.0674254952469902,0.0521207487383145,1745.0,134.9166,0.07731610315186246,183.5,43.037974683544306,72.15189873417721,511.0,4.388888888888889,,,0.02872079691566206,0.0051170384152103374,8.855509403569762e-06,5.6127772717691204,0.8485555368232828,0.15118282727720322,-5.275179441817744,65.28175122464961,155.54313790366243,0.4197019045937126,31900.13528975129,2.382643464456131,5.210762634883168,1482.4153638686398,0.5316455696202531,0.5333333333333333,0.85,0.041666666666666664,49.22369177688326,49.229994255762996,49.22197976746618,48.0,0.4797809828652914,0.5202190171347085,45.22110184358682,47.08827024647639,0.44030548895459365,0.5596945110454066,103.21145628171422,116.36607341113447,0.44621830239379495,0.553781697606205,79.67920920710827,88.76476844990565,0.6098222615930462,1.5234954826333755
37.34113631222584,82.6754897605261,1607.2577777777778,98.58252183379724,82.86048808730627,0.061335849915810724,0.051438848766894536,1597.0,97.85159999999999,0.06127213525360049,129.0,57.77777777777777,80.88888888888889,547.0,4.787234042553192,,,0.06083708495922982,0.007556836805405564,2.7082433535329136e-05,8.050601928535995,0.8891580249688348,0.11044615456853529,-4.885302588332805,58.5912130189614,126.50292130830636,0.4631609484824934,23285.35785915319,2.1590766736194253,5.074053026701715,1092.5180261659123,0.4222222222222222,0.4260089686098654,0.6631578947368421,0.024691358024691357,50.12330867159901,50.113926440926626,50.1334634000674,46.63677130044843,0.5041796938526921,0.49582030614730777,41.60313242777148,41.25679723858422,0.5320541243739432,0.46794587562605683,92.27381184669431,86.5363088351728,0.527130699432817,0.4728693005671832,71.57260991651007,67.78884888092605,0.9708327086684605,1.8780875527165521
37.657705798503706,85.07910308361627,1593.5333333333333,101.03114864831973,85.42790905573263,0.06340071245135741,0.053390224919643736,1579.0,85.9908,0.05445902469917669,125.25,48.333333333333336,73.33333333333333,566.0,4.0,,,0.05902681163198493,0.0030417349770979632,1.6034370842081384e-05,19.405639240898235,0.950748329139424,0.048993404305676266,-5.795327210209885,60.406653795896204,129.71655743486704,0.4656819066928094,24616.71319890824,2.147388562080548,5.098200175824829,1114.207406992392,0.38333333333333336,0.3949579831932773,0.5957446808510638,0.0,48.90362750406064,48.87305532458509,48.938551364578835,52.10084033613446,0.5653895627461177,0.43461043725388215,45.427022869429386,39.82817970112474,0.48682219311143937,0.5131778068885606,90.50667257511859,92.92431055506113,0.5008268296547108,0.4991731703452892,71.60681597236182,71.48850044041535,0.7618903410656164,1.368275855617212
37.65361255868028,86.07264373771727,1593.4945054945056,102.5916797174739,86.49869129360061,0.06438157104635692,0.05401502386166467,1580.0,103.782,0.06568481012658228,126.5,59.34065934065934,84.61538461538461,518.0,4.333333333333333,,,0.013956608600214178,0.010096661207426517,4.357323221598909e-05,1.3822993872418448,0.5791882603513521,0.41900348484348876,-4.5955504833085214,61.16381117746676,129.8551678091464,0.4710156107715466,24951.90161863513,2.1230718836727114,5.104073759360441,1102.7674229008016,0.5164835164835165,0.5172413793103449,0.8222222222222222,0.0625,47.7423531315747,47.86448823958885,47.616931421390554,52.87356321839081,0.48433856006239073,0.5156614399376092,42.59424448116609,43.94998434124301,0.47470651266504715,0.5252934873349528,89.46884540303853,94.11530326673108,0.4764572887150847,0.5235427112849155,70.0676243377573,73.44825196212729,0.6137542362657329,2.6026896854443837
42.65834304914076,76.73283589556145,1404.1753246753246,150.65760571040093,76.81078234746553,0.10729258879779574,0.054646193069447166,1426.0,106.0059,0.07433793828892006,140.25,35.064935064935064,68.18181818181817,984.0,4.529411764705882,,,0.01249543022312261,0.0008829092346785507,8.74604923342036e-06,14.152564875677106,0.9333943685170736,0.06595231159273643,-7.0322881546272935,54.31342506613683,199.49134341026235,0.27225955842323935,34039.339027629634,3.6729656280623812,5.238951228370812,2930.89938976753,0.38311688311688313,0.37583892617449666,0.5714285714285714,0.046511627906976744,44.744904755561464,43.610274843428314,45.59933293664288,53.691275167785236,0.36971292763636243,0.6302870723636376,33.099580614293366,43.21747331809207,0.39232651020001824,0.6076734897999818,124.95334381016266,155.5103146620523,0.3907593596601429,0.6092406403398569,91.40273619039755,114.12976817266063,0.8218090233369479,1.089204881566214
36.76138372623398,103.79078606854884,1632.89592760181,125.22522629854579,104.02696428553556,0.07668904317892487,0.06356240120029177,1617.0,109.71239999999999,0.06784935064935065,145.0,59.72850678733032,80.54298642533936,709.0,5.390243902439025,,,0.049491991435150255,0.005124606711960063,1.1299622585279885e-05,9.657715063215168,0.9059838188136456,0.09380933407990118,-5.2737014960320066,73.558171872553,161.48681316463242,0.4555057495472524,37317.95735384792,2.1953619707192384,5.2788879740225765,1418.0880335771078,0.3936651583710407,0.3972602739726028,0.5632183908045977,0.028985507246376812,50.222827432532824,50.166141271912124,50.28732689360118,50.68493150684932,0.6315762824288721,0.3684237175711279,58.458274547010866,44.64850036087311,0.45591948052032405,0.5440805194796757,109.03881891526115,119.11560265403433,0.48610331106327853,0.5138966889367214,87.48380962626402,89.95002884965818,1.0039574431068665,1.484068029764659
39.172244672232836,79.80213760244322,1532.419642857143,108.30459773460605,79.98145792674339,0.07067554781056963,0.05207590360409041,1515.5,100.8168,0.06652378752886837,142.75,47.767857142857146,76.78571428571429,526.0,5.743589743589744,,,0.047073119997571536,0.004430253135773861,1.7932066481779897e-05,10.625379307891166,0.9136631887526298,0.08598875976823511,-5.419298555299385,56.5554312691868,142.35659242245364,0.397280029725314,25293.08333771035,2.517116203126083,5.109971884934131,1433.3123416334956,0.38839285714285715,0.3891402714932127,0.5232558139534884,0.0,49.85126605238338,49.82818861348885,49.87381216727844,50.678733031674206,0.5386610841538458,0.46133891584615416,41.50813987250785,38.413644816758904,0.4394336908063201,0.5605663091936799,94.36789314539692,106.5837705724072,0.4529600747816742,0.5470399252183257,72.8979592731399,80.11151058849048,0.9749904249195733,1.5531670069727976
38.75315468564026,86.05122187039605,1548.5772727272727,111.34273235071313,86.24570144148497,0.07190001707478387,0.055567922496271155,1535.0,94.1451,0.06133231270358306,135.0,50.45454545454545,80.0,772.0,5.238095238095238,,,0.026434109524013937,0.002235797213270084,7.808049882370873e-06,11.823124819692982,0.9217648519136367,0.07796287918556988,-6.103157419541705,60.98492033746441,145.1594448949506,0.42012368111216014,27811.06578021175,2.380251447270907,5.1511877422490295,1382.0639151849905,0.39545454545454545,0.39631336405529954,0.5348837209302325,0.0,49.44973230220106,49.41952344987715,49.4934636595866,49.76958525345622,0.6168960826415499,0.38310391735845006,47.90070003893663,37.74801774976664,0.39524764343644886,0.6047523565635512,91.25989050513826,112.88444014655158,0.428501988251466,0.5714980117485338,72.87950562136795,84.16593631403705,1.0229439393830724,1.494903020500233
38.51702611878509,64.40928159477915,1557.6275862068965,71.25121293583419,64.63157045121137,0.04574342003619987,0.04135088654382871,1555.0,78.5778,0.05053234726688103,98.0,46.206896551724135,79.3103448275862,339.0,5.0,,,0.06699224875805644,0.0057419181823175095,3.081712530158886e-05,11.667224546034465,0.920666026637087,0.07891045749608112,-5.159961946371633,45.701421744787645,88.85007189549863,0.5143656135533526,12756.671357063442,1.9441424030890722,4.812707477148864,690.9487691582062,0.3724137931034483,0.3776223776223776,0.48148148148148145,0.02,49.45362473347547,49.48629902633054,49.41835850308563,51.048951048951054,0.5591152877842356,0.4408847122157645,34.174122217997486,30.34654160547108,0.3920594508097327,0.6079405491902674,55.63316234721767,69.27688303527663,0.42701280018608456,0.5729871998139153,46.16773430721128,53.47989860917832,0.6328373932152536,1.461517782357478
40.63587798517784,47.99952889216046,1476.66,69.08282408033543,48.120004633695814,0.046783162055134844,0.03250547105776581,1469.0,65.9757,0.04491198093941457,83.25,28.000000000000004,66.0,386.0,5.882352941176471,,,0.019315325713262693,0.004187834834919985,1.0656609708923585e-05,4.6122462978251,0.8214457730773062,0.17810102063817754,-5.475571424449722,34.025981587214396,91.77359462515794,0.37076003970631044,9810.209410539883,2.6971622961097115,4.698648387970816,990.1131168057314,0.47,0.4639175257731959,0.7111111111111111,0.028169014084507043,49.68587087287798,49.689372831994845,49.68286972525746,46.90721649484536,0.48910656136379016,0.51089343863621,23.796750902914322,24.320980675336695,0.4565277431087284,0.5434722568912715,62.00851487822963,67.65601786256114,0.46046499436080635,0.5395350056391937,46.96456787270048,50.837224816217564,0.9187493803782201,1.5777729977901316
37.70630306140045,95.22146581008091,1591.8223350253807,113.7801043753375,95.46330483141375,0.07147789164142074,0.05981915425791702,1567.0,103.782,0.0662297383535418,157.0,52.79187817258884,78.1725888324873,539.0,4.191489361702128,,,0.0843212410117441,0.004453420324558324,2.3139678174203775e-05,18.934040550081427,0.9495870398637156,0.050152371721820986,-5.414082865774825,67.50275020077117,146.3644542461431,0.46119633724217546,31038.945449356645,2.168273941592249,5.198877067608984,1269.4329284691328,0.39593908629441626,0.4,0.48717948717948717,0.031746031746031744,50.42435294942834,50.43495702653631,50.41225882887544,49.743589743589745,0.5172300477673049,0.4827699522326953,48.54812573952276,46.903009580327655,0.46929804778805645,0.5307019522119433,100.26745494222463,106.6254704382601,0.4777053795760212,0.5222946204239789,78.77335537290372,82.36772199676456,0.9003925543405895,1.564199126955256
42.67842977545139,58.23271025539959,1406.1538461538462,100.76597603760435,58.51028178391946,0.07166070505956545,0.041412758934365135,1394.5,99.3342,0.07123284331301541,133.0,32.69230769230769,68.26923076923077,479.0,4.9523809523809526,,,0.025683222547379564,0.001740108026773597,1.8045578310718758e-05,14.75955639087525,0.9359305599210461,0.06341183536516472,-6.353808083330211,41.37301701854517,136.93376218298167,0.30213890540200955,17798.26238239664,3.3097359595893634,4.957347714822782,1812.8583871154901,0.40384615384615385,0.40594059405940597,0.5853658536585366,0.03125,51.03387593488782,51.04391088826583,51.0206647887072,51.48514851485149,0.5560270042773952,0.44397299572260507,30.854497241083024,27.570764567264533,0.3896310350385926,0.6103689649614075,85.47464612037672,106.98102680467103,0.4035534480536843,0.5964465519463156,64.25696510653002,78.11877864830348,0.663499900841134,1.3049487216659381
42.18556514716094,44.79483585847401,1422.5102040816328,52.48175822464101,45.0243133058106,0.03689376573472317,0.031489992641137776,1420.5,45.2193,0.03183336853220697,59.25,24.489795918367346,67.3469387755102,297.0,4.454545454545454,,,0.06750177584735441,0.0072404252861738416,6.568135093304285e-05,9.322902064365518,0.9023350695880948,0.09678693000938483,-4.928075333125475,31.836997256806374,66.98234511839772,0.47530430892694825,6699.498917094836,2.103915283784424,4.5330124312180295,563.7007185532799,0.40816326530612246,0.422680412371134,0.5121951219512195,0.03225806451612903,50.727069351230426,50.754823437014515,50.69932023538614,49.48453608247423,0.508872881965495,0.49112711803450515,22.712652494443123,22.31311273668468,0.5858452356199201,0.4141547643800798,51.26864031271255,43.1063925427058,0.571658942156409,0.428341057843591,39.65058677275551,34.32226739338357,0.6172719242992133,1.9195928407379397
37.758460271479834,49.631416794603474,1589.25,73.54553715380894,49.739967862346404,0.04627688353236365,0.031229458420389163,1585.5,59.303999999999995,0.03740397350993377,81.0,22.36842105263158,62.28070175438597,474.0,5.181818181818182,,,0.02191869487039368,0.0019111646539744197,1.3096081877507896e-05,11.468763209288117,0.9192943707302851,0.08015636507219744,-6.260042456276885,35.171468571466086,98.04716567058549,0.358719890890407,10833.665417206676,2.7876904108044327,4.741745528834844,1093.300574185779,0.3815789473684211,0.3822222222222222,0.5697674418604651,0.014705882352941176,50.460159844998785,50.47060868908899,50.448829178403166,44.44444444444444,0.4687658719087782,0.5312341280912218,24.08121399050798,25.635592997209642,0.5800988384445551,0.4199011615554449,74.67685881215814,63.534348615408355,0.5674053382302795,0.4325946617697206,55.48215077530628,48.44479890712121,1.008214995639661,1.568615917913845
35.88113964615,62.92824963217959,1672.6052631578948,99.85774115024459,63.19091184716243,0.05970191733207405,0.03762289346941935,1669.5,88.2147,0.05283899371069182,110.75,37.719298245614034,71.9298245614035,539.0,4.56,,,0.02041602141601925,0.0011426537118801251,4.872505520289566e-06,17.867199138071918,0.9467839783643972,0.052990061343580364,-6.77440190430676,44.6827222764899,133.77055887222008,0.33402508484076526,18778.03043606074,2.993787129720257,4.98062014860501,1601.9223099485537,0.37719298245614036,0.3893805309734513,0.5681818181818182,0.0,51.522290685030804,51.603730335131836,51.44276263129368,40.707964601769916,0.5144968668710725,0.4855031331289275,32.05916684150461,31.14274451159187,0.5329977784910929,0.4670022215089071,97.66146639005468,91.41553699197043,0.5311398391310496,0.4688601608689505,72.68270838386256,68.28861888793988,0.6797986865792813,1.2869218873066868
36.18269857605377,75.47387549578292,1658.6279069767443,92.3380039677282,75.90572252132637,0.05567131939558212,0.04550380177393286,1663.5,81.54299999999999,0.04901893597835888,111.75,37.2093023255814,74.4186046511628,468.0,4.095238095238095,,,0.02487550377379895,0.003294572861857164,1.122449511149322e-05,7.5504488189635985,0.8826953609548044,0.11690634320145835,-5.715478751643952,53.673451125694314,119.36792391804507,0.44964718631233896,20127.833625285144,2.223965879117875,5.01076714390586,1061.880759419483,0.36046511627906974,0.3764705882352941,0.5,0.0,51.47584973166369,51.523497538495214,51.42705119034836,45.88235294117647,0.4519378916366851,0.548062108363315,36.09032979569326,39.74352298233788,0.47939557486439144,0.5206044251356088,82.64843816945597,86.127445850053,0.47477612576668304,0.5252238742333171,63.77019772829739,67.07266413264583,0.5611345053644077,1.276293465905562
49.57696609498108,23.255519969236293,1210.1348314606741,140.00013648187343,23.13247894024555,0.11568970071945493,0.01921729658931153,1161.0,84.5082,0.0727891472868217,123.5,4.49438202247191,33.146067415730336,606.0,3.9555555555555557,,,0.00045627542170399997,0.0002056762358474995,2.430975077461526e-06,2.218415850639689,0.6867660280319472,0.30957497343607393,-8.48920729618782,16.35713272430263,195.10267469288158,0.08383858781050031,10025.828550531573,11.927681824272755,4.7080903835288,9308.490507205135,0.4550561797752809,0.45714285714285713,0.6625,0.0,41.57809983896939,42.40164232430554,40.684089293432265,53.142857142857146,0.3624236092974667,0.6375763907025331,9.927721747254457,13.167625588402931,0.37643795942412717,0.6235620405758728,119.70434883401963,154.06467000107367,0.3763385477119855,0.6236614522880144,84.93435932785849,109.33734244569897,0.47710069203721295,0.455188543460595
36.45594637737373,68.3334558412979,1646.1,107.15016987438511,68.48990125927055,0.06509335391190396,0.04151233572765804,1631.0,105.26459999999999,0.06453991416309011,142.5,42.27272727272727,76.36363636363637,554.0,5.5,,,0.014754386032604285,0.0011387493376630237,6.532686092146606e-06,12.956658278180594,0.9279681802352417,0.07162095042654387,-6.777824691025381,48.42967362322726,143.9420347612314,0.336452612355811,21900.24899234392,2.972186760560692,5.0474191624907805,1711.2904400219954,0.42272727272727273,0.423963133640553,0.6304347826086957,0.013157894736842105,50.114095137791814,50.11876619660962,50.10884621809167,43.77880184331797,0.46653471697965604,0.533465283020344,33.07913780312548,35.37246116930955,0.5617452660057326,0.4382547339942674,107.88407646257073,95.29079397833635,0.5520633632067719,0.44793663679322787,79.79098731053519,71.873313636551,1.0027827675278393,1.4317950486389237
34.5558440592467,76.28376759160197,1736.5454545454545,127.13610539085573,76.47100541391367,0.07321208037375213,0.04392846003076231,1711.5,107.48849999999999,0.06280368098159508,151.75,49.494949494949495,72.72727272727273,651.0,5.351351351351352,,,0.022677762401350072,0.0007899945722414986,2.5278875248296193e-06,28.706225584569662,0.9662329424437743,0.03365935168304222,-7.143484483107191,54.073166492331545,171.21005289638686,0.31582938955725703,29084.45542304572,3.166266449749475,5.170631046448236,2168.38658538265,0.40404040404040403,0.4020618556701031,0.5128205128205128,0.034482758620689655,49.111091839389466,49.15991253621162,49.063125532538606,46.90721649484536,0.4985454275832291,0.5014545724167708,38.18339873263655,38.29464181627417,0.4999493256208947,0.5000506743791051,121.05765442253487,121.06992408727159,0.4998219691900637,0.5001780308099364,89.75780643782853,89.78977143955329,0.923269595280396,1.3766324502081535
36.00154268503451,54.98899176822825,1666.7756097560975,84.62986534363775,55.12396639405797,0.050774600281091105,0.032991238560465194,1648.0,78.5778,0.04768070388349514,114.0,37.5609756097561,74.63414634146342,412.0,4.767441860465116,,,0.02298111544930221,0.0013181711932886552,5.295371932537472e-06,17.434090174560332,0.9455466230840611,0.05423550145816008,-6.631509962650242,38.97853044313775,113.3887355458698,0.3437601650242368,13884.979613330803,2.909004886966746,4.849515356394165,1319.3935433196611,0.3902439024390244,0.3910891089108911,0.4936708860759494,0.0,50.20390168632205,50.211566518452834,50.19614102117227,45.04950495049505,0.47451661903241127,0.5254833809675885,26.850571725206215,28.255781046744687,0.5249992318388599,0.47500076816114006,82.15788417316378,78.14785612465775,0.5196640539592545,0.4803359460407453,61.11820978146137,58.76000586896577,0.9697053553113304,1.655844285248256
34.30290675492932,70.2227353364958,1749.0923076923077,115.30965698775309,70.46062455303033,0.06592542685176443,0.04014810140531992,1746.0,96.369,0.05519415807560137,129.25,49.23076923076923,73.84615384615385,671.0,5.416666666666667,,,0.011130456732942657,0.0006624834601546635,3.1241480307450623e-06,16.801108861410878,0.9435737557089523,0.05616139764894752,-7.319514966219829,49.823185428087086,154.42125833001361,0.3226446019602429,24170.656714609435,3.099385496997165,5.090258560272482,1914.4440339843875,0.4153846153846154,0.42635658914728686,0.6,0.022222222222222223,48.00221208350615,48.084708906218204,47.921121000056274,49.6124031007752,0.45611503327155345,0.5438849667284468,33.66586735849828,36.762593505491424,0.44335488141271856,0.5566451185872817,102.82123934913332,115.21162164874272,0.44455907678321627,0.5554409232167837,76.50358777956679,85.51375925599062,0.8206170204006105,1.5270669150009728
37.28442199491302,77.30315112537808,1608.8702702702703,109.15612289600354,77.48170773325829,0.06784644163862052,0.04804809471206905,1601.0,109.71239999999999,0.06852742036227358,146.0,44.32432432432433,75.13513513513513,633.0,5.4411764705882355,,,0.04824553668229653,0.004051172952037707,1.4561031817717127e-05,11.909029126497654,0.9222780496042097,0.07744359677080108,-5.508748822007736,54.78784095610109,143.07938484514298,0.3829191816514924,24626.978052658615,2.611517124023663,5.098381233308238,1494.6170544714507,0.3675675675675676,0.3715846994535519,0.45588235294117646,0.01818181818181818,48.047134847476954,48.06309350282439,48.02952573032566,47.540983606557376,0.4703845142936656,0.5296154857063343,37.591709352220974,39.88833457256241,0.5229380506155452,0.47706194938445484,103.46707839903732,98.82446081427409,0.516212771059367,0.4837872289406329,77.84141868072034,75.35699466607156,0.8127145281982049,1.3952899240284682
35.15975962835708,80.77622059868641,1706.7445652173913,128.66169037982763,80.97245198920766,0.07538426839135108,0.04732765654853442,1702.5,126.7623,0.07445656387665198,172.75,47.28260869565217,79.34782608695652,704.0,5.575757575757576,,,0.007800716429242699,0.0009629203349928361,3.2059050028615996e-06,8.101102599833178,0.8897976983908132,0.10983661636492995,-6.945539875452258,57.256169890870886,172.14155784431716,0.3326109662760965,30964.05958161945,3.0065154230961575,5.19782800442476,2070.1849944589558,0.44021739130434784,0.4388888888888889,0.6582278481012658,0.04918032786885246,48.331830477908014,48.28412812609065,48.38125756109841,48.333333333333336,0.4746582604573723,0.5253417395426276,39.45925705120368,41.512542788791066,0.5001442413464711,0.499855758653529,121.7400190216042,121.70490419735698,0.49760414541585074,0.5023958545841495,90.49216871755677,90.92682473967473,0.9180245038802854,1.3429580476329226
38.29998621526117,53.444099198418854,1565.9032258064517,130.21329195794314,53.59351686694226,0.083155389050867,0.034129886392497054,1595.0,108.2298,0.06785567398119122,161.0,30.107526881720432,64.51612903225806,519.0,3.3214285714285716,,,0.010717139735980317,0.0012542584325556144,6.446069869495267e-06,8.544602498022364,0.8947469613619768,0.10471487252555807,-6.681210771436852,37.89633920425048,178.97966687265387,0.211735443843541,21308.399333074933,4.72287483780437,5.035520937108082,3381.194260605861,0.43010752688172044,0.42696629213483145,0.5789473684210527,0.0,45.14995947041341,44.90101067413112,45.391286320952354,49.43820224719101,0.40111958048078783,0.5988804195192121,24.065501275650828,29.40546409566288,0.515153422202882,0.4848465777971179,128.46120456502305,124.62519839723204,0.5102353370966939,0.489764662903306,92.41598733429474,90.54314273933385,0.7542057463630183,1.233090202896663
38.71755511191253,51.56592812914575,1550.2444444444445,104.80622152292587,51.7946143295269,0.06760625519318335,0.03326309493573141,1551.5,136.39919999999998,0.08791440541411535,172.0,32.22222222222222,66.66666666666666,421.0,4.7368421052631575,,,0.00808235423282203,0.0015272857329262776,4.955960982394067e-06,5.291972588086874,0.8406337920402146,0.1588507457375391,-6.484263149801061,36.62432302135039,142.094996835351,0.25774533823867074,16349.26620158701,3.8797985904754,4.920468375107748,2205.199873741605,0.4111111111111111,0.4137931034482759,0.5555555555555556,0.043478260869565216,53.23269723725432,53.00059852627744,53.473965169596106,50.57471264367817,0.5842893663772157,0.41571063362278426,28.029509612030477,23.64270019958111,0.4859860401236996,0.5140139598763006,99.05825743149153,101.87467673703195,0.49212385625924027,0.5078761437407597,72.79488915595158,73.95075061485863,0.6061315224409767,1.498212277323876
32.69452012549228,56.604607874739855,1835.1827411167512,106.0005155291612,56.742899748774995,0.05776019638494281,0.0308441260952,1834.0,81.54299999999999,0.0444618320610687,119.0,40.10152284263959,70.55837563451777,576.0,4.690476190476191,,,0.016784520268227774,0.0008414115068446962,8.437073708229788e-07,19.948051734127024,0.9522172835834651,0.04773485131655322,-7.080429711069781,40.12328919654724,144.55460818045952,0.277564926511772,18221.257335907103,3.6027606678093327,4.967548451600199,2083.182626812595,0.4467005076142132,0.4512820512820513,0.6818181818181818,0.13953488372093023,49.04836542767577,49.03462892694401,49.0638593690805,52.820512820512825,0.5306194267515922,0.4693805732484077,29.230691632825476,27.492236666431438,0.4177112952805696,0.5822887047194304,93.42649378022045,110.30650482242923,0.425789527327216,0.5742104726727842,69.22045605671384,80.38453857261258,0.9567360056610368,1.3364129977822927
34.31926171640563,41.99338572256879,1748.7981651376147,56.04624079912245,42.18717461061905,0.03204843298466757,0.024012711449330853,1744.0,48.925799999999995,0.02805378440366972,69.0,25.688073394495415,60.550458715596335,292.0,4.36,,,0.03123409138783344,0.007336118392450989,2.253666488464375e-05,4.2575773340809135,0.8093254371572002,0.19009060168531497,-4.91494540560163,29.830837246269674,73.51331519697344,0.40578821899597606,6889.398778548871,2.4643396559768442,4.545151433676181,724.6471115289073,0.5321100917431193,0.5377358490566038,0.7543859649122807,0.1,49.390919158361015,49.3772027480318,49.405009332312666,48.113207547169814,0.48639027156448866,0.5136097284355113,20.805507897633852,21.37974410379893,0.5384624865321274,0.46153751346787253,53.944073022372365,49.94241180606444,0.5310997486725878,0.4689002513274123,40.882955942064335,38.41443709694605,0.7732229415575835,1.7757591278816138
33.892842971863736,48.05738756944659,1769.8271604938273,97.53048114864615,48.35564285791816,0.05510734795223316,0.027153717968729413,1778.0,111.195,0.06253937007874015,152.0,34.5679012345679,60.49382716049383,436.0,4.5,,,0.01281615157199614,0.0006361456431825125,2.1251152976464764e-06,20.146568178757672,0.952560523015962,0.04728152778001822,-7.360083022125713,34.19260297346878,133.76438494748797,0.25561813771948194,14368.86727375736,3.9120854604512085,4.864392643151942,2093.190821917065,0.2716049382716049,0.27848101265822783,0.5,0.0,50.883392226148416,50.83873288560869,50.92771606403951,46.835443037974684,0.4853405209973968,0.5146594790026034,23.823188363388063,24.532205647353653,0.49314590372205225,0.506854096277948,93.93516704458362,95.23179654236246,0.4926670835016429,0.507332916498357,68.52503159974206,69.53748696426256,0.5861825801438423,1.4572460970921748
31.874863156123915,66.09519817081221,1882.2456140350878,102.50944799137166,66.37531203723607,0.05446124949209776,0.035115076203641564,1870.5,97.1103,0.051916760224538894,134.75,54.385964912280706,81.57894736842105,445.0,5.428571428571429,,,0.004230914447262332,0.0017224420468040455,1.6889388555854034e-06,2.4563464733763922,0.7104755950092473,0.28924079021826954,-6.364012200458689,46.93443324490269,137.33746916321402,0.3417452901300014,20250.254730520504,2.9261559087459426,5.013400600592163,1607.4833875366098,0.5526315789473685,0.5585585585585585,0.8387096774193549,0.02631578947368421,48.771985422278554,48.746072465428455,48.799705858038074,47.74774774774775,0.4611616756035159,0.5388383243964843,31.879516486743825,34.45992755568208,0.5282164633818536,0.47178353661814626,99.81481509164401,94.33230159588854,0.5212014107898628,0.478798589210137,74.09217530619429,71.01432859472986,0.7808714357176227,1.840549633397487
31.71977667252156,63.49532332901443,1892.0473684210526,75.26392974076145,63.66114747335832,0.039779093799100045,0.03355905586127181,1896.0,70.42349999999999,0.03714319620253164,95.5,44.21052631578947,75.26315789473685,436.0,4.523809523809524,,,0.015319708856096879,0.004646500019202279,4.112587672639358e-06,3.297042675731442,0.7671237984076568,0.23267026661627058,-5.371641026834247,45.015229076528506,96.34895485735764,0.4672103516138031,13625.622270757232,2.140363535495039,4.841326455228637,824.8871586389837,0.5368421052631579,0.5401069518716577,0.8316831683168316,0.06557377049180328,50.577178465624684,50.597936425782684,50.55612326894543,44.38502673796791,0.4545232636423649,0.5454767363576352,30.34986592560382,33.248100249679915,0.5621939581679821,0.43780604183201793,72.24205559468258,63.75112944536694,0.5429007275311014,0.45709927246889864,55.40771136875867,50.84113824341809,0.8441550358599157,1.7017131885432712
33.6618476095471,76.16309312210673,1782.8020833333333,117.36372244617303,76.3551497970082,0.06583104403083051,0.04272100298407964,1778.5,86.73209999999999,0.04876699465842001,110.75,43.22916666666667,76.5625,724.0,5.333333333333333,,,0.02015018112684776,0.0015529142105094582,3.653910966487199e-06,12.975720738776145,0.9282910534567422,0.07154061590449254,-6.467621977481514,53.99124419997913,156.84490604485134,0.344233329353647,26603.797090049604,2.905006327765123,5.131913736726977,1822.541778152077,0.4322916666666667,0.43684210526315786,0.6626506024096386,0.017857142857142856,51.02139140489497,51.02726883529274,51.01834377834581,45.78947368421053,0.6263019470087261,0.3736980529912739,42.732798940195316,33.00881062606419,0.48304855515164186,0.5169514448483583,109.0098675864276,112.77044524611827,0.49822809329605955,0.5017719067039405,82.7926425972551,83.08656600183667,0.9651428781624674,1.3416900548831365
34.14006864392433,49.89491547917057,1757.5876288659795,68.01961810535497,50.024612357689826,0.03870055580059026,0.02838829464870749,1759.0,63.01049999999999,0.035821773735076744,83.75,35.051546391752574,73.71134020618557,385.0,5.705882352941177,,,0.017136964196399384,0.0031146331550789483,7.93008860749161e-06,5.502081093709093,0.8458718618723511,0.15373671297565833,-5.771643900907698,35.372742624350835,89.71456232530518,0.3942809473459749,9969.687592288497,2.536262547635904,4.705651659540151,910.1587376128743,0.4948453608247423,0.5025906735751295,0.7525773195876289,0.07272727272727272,50.100933636134236,50.102554135818465,50.09912367623552,45.59585492227979,0.44767250673293446,0.5523274932670653,23.667345207409017,26.288612474479006,0.6113013082514522,0.38869869174854776,70.14401247500051,55.93317626532614,0.5892863225909973,0.4107136774090029,52.34656490764076,43.70132350948525,0.9790533940698478,1.9802348915963879
32.933025694942366,80.04317940402974,1822.1693548387098,114.07348378850111,80.37044960472392,0.06260311835756802,0.043927409486652684,1816.5,73.3887,0.04040115606936416,103.5,53.2258064516129,81.45161290322581,739.0,4.592592592592593,,,0.0340330087524445,0.0016914260936557557,5.544545334103855e-06,20.120896136163665,0.9525056921976095,0.04733912872228653,-6.3821832634821325,56.83048992251196,151.3705640063735,0.37543950698445633,27025.435544789012,2.6635449423850894,5.138742811779526,1612.7292007406186,0.4596774193548387,0.4672131147540984,0.7017543859649122,0.02631578947368421,49.8918918918919,49.869947014461175,49.91929139052581,51.63934426229508,0.6135016813653956,0.3864983186346044,44.513306170509374,35.33098765283232,0.4037782868334538,0.5962217131665462,96.18623147459465,116.88137799634002,0.4296878074058087,0.5703121925941914,74.94406431303887,86.34099608774474,0.7983658710293602,1.3862943611198904
32.32527947488806,51.638560015778374,1856.2,80.23924916721391,51.801414206685465,0.04322769592027471,0.02781950221731407,1845.0,67.4583,0.03656276422764227,95.75,31.25,60.62499999999999,480.0,4.705882352941177,,,0.01327541649481667,0.001157735446246934,1.8169312232692673e-06,11.466709892879232,0.9196706007661449,0.08020352911668722,-6.76128938340414,36.62913126060045,107.76733430906086,0.33989085371225286,12401.197717536099,2.942120945821587,4.800433741656056,1268.258126184181,0.43125,0.43670886075949367,0.6231884057971014,0.06666666666666667,49.776143268308296,49.77556098721657,49.77707916811688,50.0,0.49490306146516333,0.5050969385348365,25.768504473189942,26.032538062484104,0.4547648814885123,0.5452351185114878,72.67425697987854,79.57544041036444,0.45892170459685894,0.5410782954031409,54.52322188921999,59.20280295086604,0.7731134271347773,1.3002814864598502
32.981526521618164,52.29739421673383,1819.450867052023,72.57044822542575,52.4459488748137,0.03988590708305769,0.028743504517639993,1826.0,65.2344,0.035725301204819274,89.0,32.369942196531795,69.94219653179191,378.0,4.942857142857143,,,0.02187315111061932,0.003430929983164968,4.9162613607950745e-06,6.375283441500532,0.8642440790398483,0.135561671409614,-5.674923922435892,37.08488609514375,95.19229778932502,0.38957864193191577,11090.436313416303,2.566875830361264,4.751918742204879,977.3872337278816,0.4913294797687861,0.5,0.7209302325581395,0.08,49.219505456554764,49.266960263753475,49.16998454751932,47.093023255813954,0.44567761355205854,0.5543223864479415,24.759486338425724,27.612926034930204,0.47270127326196715,0.5272987267380327,65.4478216506715,69.12420849162343,0.46913981698508866,0.5308601830149112,49.479538814346256,52.63378137567142,0.9246361297857404,1.8528197259893018
31.678998477006104,43.40460805029807,1893.7368421052631,84.40226986221838,43.49703106778336,0.044569165042165286,0.022920084293256534,1890.5,58.5627,0.030977360486643745,76.75,25.0,68.42105263157895,461.0,3.619047619047619,,,0.008088780517210918,0.00131581244904577,8.801671938614542e-07,6.147365852235947,0.8600078276172183,0.13989859206190117,-6.633300972158038,30.75704562951155,111.09347010107793,0.2768573670579142,10734.529706270965,3.611968179235107,4.737753132143889,1605.0643157036009,0.40789473684210525,0.4266666666666667,0.71875,0.0,44.160720991363135,44.54744247113792,43.74525360740856,50.66666666666667,0.4132430270989476,0.5867569729010522,19.862704423794536,23.668173407181897,0.28220792107601755,0.7177920789239823,59.01645683856138,94.12128835349267,0.2916164685177999,0.7083835314822001,44.031064061664495,68.62579454459433,0.6446603580034873,1.5234954826333758
32.75767357444474,64.17206599490197,1832.48,67.12077859291352,64.60423759889837,0.03662838262513835,0.03501924495487098,1826.0,62.2692,0.03410142387732749,84.0,42.66666666666667,74.66666666666667,286.0,4.6875,,,0.02986026655414883,0.007025907290803407,1.1358104602832774e-05,4.2500228537365645,0.809275444085872,0.19041672761226863,-4.958150920385905,45.682094499567945,81.9829426638208,0.5572146231307153,11765.743687768743,1.7946406258713943,4.777589493176898,588.519678131912,0.5333333333333333,0.547945205479452,0.8,0.08333333333333333,50.851063829787236,50.90152374225237,50.801930494999844,47.94520547945205,0.4405058804998427,0.5594941195001575,30.322241938293143,34.17300865519372,0.5694601076983162,0.4305398923016838,61.866444219462196,53.79354949675192,0.5389033198877625,0.46109668011223753,48.718042225258856,45.064068214085175,0.47899129643073746,2.0794415416798357
